{
  "AcquisitionMatrixPE": 72,
  "AcquisitionNumber": 1,
  "AcquisitionTime": "19:52:37.432500",
  "BandwidthPerPixelPhaseEncode": 24.366,
  "BaseResolution": 72,
  "BodyPartExamined": "BRAIN",
  "CoilCombinationMethod": "Sum of Squares",
  "ConsistencyInfo": "N4_VE11C_LATEST_20160120",
  "ConversionSoftware": "dcm2niix",
  "ConversionSoftwareVersion": "v1.0.20220720",
  "DerivedVendorReportedEchoSpacing": 0.000570011,
  "DeviceSerialNumber": "45219",
  "DwellTime": 3.5e-06,
  "EchoTime": 0.03,
  "EchoTrainLength": 72,
  "EffectiveEchoSpacing": 0.000570011,
  "FlipAngle": 80,
  "HeudiconvVersion": "1.1.6",
  "ImageOrientationPatientDICOM": [0.998421, -0.0484236, 0.0284637, 0.0505779, 0.995462, -0.0805996],
  "ImageOrientationText": "Tra>Cor(-4.7)>Sag(1.4)",
  "ImageType": [
    "ORIGINAL",
    "PRIMARY",
    "M",
    "ND",
    "NORM",
    "MOSAIC"
],
  "ImagingFrequency": 123.182,
  "InPlanePhaseEncodingDirectionDICOM": "COL",
  "InstitutionAddress": "First Avenue 660,New York,NYC,US,10016",
  "InstitutionName": "NYU LANGONE CBI",
  "InstitutionalDepartmentName": "Department",
  "MRAcquisitionType": "2D",
  "MagneticFieldStrength": 3,
  "Manufacturer": "Siemens",
  "ManufacturersModelName": "Skyra",
  "MatrixCoilMode": "SENSE",
  "Modality": "MR",
  "NonlinearGradientCorrection": false,
  "PartialFourier": 1,
  "PatientPosition": "HFS",
  "PercentPhaseFOV": 100,
  "PercentSampling": 100,
  "PhaseEncodingDirection": "j-",
  "PhaseEncodingSteps": 72,
  "PhaseResolution": 1,
  "PixelBandwidth": 1985,
  "ProcedureStepDescription": "MRI BRAIN WITHOUT IV CONTRAST",
  "ProtocolName": "REST_1",
  "PulseSequenceDetails": "%SiemensSeq%\\ep2d_bold",
  "ReceiveCoilActiveElements": "HE1-4",
  "ReceiveCoilName": "HeadNeck_20",
  "ReconMatrixPE": 72,
  "RepetitionTime": 2.5,
  "SAR": 0.10312,
  "ScanOptions": "FS",
  "ScanningSequence": "EP",
  "SequenceName": "*epfid2d1_72",
  "SequenceVariant": "SK",
  "SeriesDescription": "REST_1",
  "SeriesNumber": 6,
  "ShimSetting": [-927, -6820, 4951, 309, -113, -109, 207, -270],
  "SliceThickness": 3,
  "SliceTiming": [1.24, 0, 1.305, 0.065, 1.37, 0.13, 1.435, 0.195, 1.5, 0.26, 1.565, 0.325, 1.63, 0.3925, 1.6975, 0.4575, 1.7625, 0.5225, 1.8275, 0.5875, 1.8925, 0.6525, 1.9575, 0.7175, 2.0225, 0.7825, 2.0875, 0.8475, 2.1525, 0.9125, 2.2175, 0.9775, 2.285, 1.045, 2.35, 1.11, 2.415, 1.175],
  "SoftwareVersions": "syngo MR E11",
  "SpacingBetweenSlices": 3,
  "StationName": "MRC45219",
  "TaskName": "rest",
  "TotalReadoutTime": 0.0404708,
  "TxRefAmp": 466.473,
  "dcmmeta_affine": [
    [-2.9952638149261475, 0.15173359215259552, 0.0732947438955307, 102.72929382324219],
    [0.14527073502540588, 2.9863874912261963, -0.24573592841625214, -117.35093688964844],
    [0.08539097011089325, 0.2417987734079361, 2.9890201091766357, -83.57135009765625],
    [0.0, 0.0, 0.0, 1.0]
],
  "dcmmeta_reorient_transform": [
    [0.0, -1.0, 0.0, 71.0],
    [1.0, 0.0, 0.0, 0.0],
    [0.0, 0.0, 1.0, 0.0],
    [0.0, 0.0, 0.0, 1.0]
],
  "dcmmeta_shape": [72, 72, 38, 122],
  "dcmmeta_slice_dim": 2,
  "dcmmeta_version": 0.6,
  "global": {
    "const": {
      "AccessionNumber": "103-1",
      "AcquisitionMatrix": [72, 0, 0, 72],
      "AngioFlag": "N",
      "BitsAllocated": 16,
      "BitsStored": 12,
      "BodyPartExamined": "BRAIN",
      "Columns": 504,
      "CountryOfResidence": "United States of America [1]",
      "EchoNumbers": 1,
      "EchoTime": 30.0,
      "EchoTrainLength": 72,
      "FlipAngle": 80.0,
      "HighBit": 11,
      "ImageOrientationPatient": [0.99842124249101, -0.04842357675, 0.02846365678288, 0.05057786402937, 0.99546249813662, -0.0805995935091],
      "ImagePositionPatient": [-793.2537999295, -708.36379883586, -32.619548851578],
      "ImageType": [
        "ORIGINAL",
        "PRIMARY",
        "M",
        "ND",
        "NORM",
        "MOSAIC"
],
      "ImagedNucleus": "1H",
      "ImagingFrequency": 123.182,
      "InPlanePhaseEncodingDirection": "COL",
      "MRAcquisitionType": "2D",
      "MagneticFieldStrength": 3.0,
      "Manufacturer": "SIEMENS",
      "ManufacturerModelName": "Skyra",
      "Modality": "MR",
      "NumberOfAverages": 1.0,
      "NumberOfPhaseEncodingSteps": 72,
      "PercentPhaseFieldOfView": 100.0,
      "PercentSampling": 100.0,
      "PerformedProcedureStepStartTime": "194242.313000",
      "PhotometricInterpretation": "MONOCHROME2",
      "PixelBandwidth": 1985.0,
      "PixelRepresentation": 0,
      "PixelSpacing": [3.0, 3.0],
      "PregnancyStatus": 4,
      "ProcedureCodeSequence": [
        {
          "CodeMeaning": "MRI BRAIN WITHOUT IV CONTRAST",
          "CodeValue": "IMG269",
          "CodingSchemeDesignator": "L"
        }
],
      "ProtocolName": "REST_1",
      "RepetitionTime": 2500.0,
      "RequestAttributesSequence": [
        {
          "RequestedProcedureID": "353073276",
          "ScheduledProcedureStepDescription": "MRI BRAIN WITHOUT IV CONTRAST",
          "ScheduledProcedureStepID": "E10488271",
          "ScheduledProtocolCodeSequence": [
            {
              "CodeMeaning": "MRI BRAIN WITHOUT IV CONTRAST",
              "CodeValue": "651061",
              "CodingSchemeDesignator": "L"
            }
]
        }
],
      "RequestedProcedureCodeSequence": [
        {
          "CodeMeaning": "MRI BRAIN WITHOUT IV CONTRAST",
          "CodeValue": "IMG269",
          "CodingSchemeDesignator": "L"
        }
],
      "Rows": 504,
      "SAR": 0.10311970397887,
      "SamplesPerPixel": 1,
      "ScanOptions": "FS",
      "ScanningSequence": "EP",
      "SequenceName": "*epfid2d1_72",
      "SequenceVariant": "SK",
      "SeriesDescription": "REST_1",
      "SeriesNumber": 6,
      "SeriesTime": "195327.928000",
      "SliceLocation": -71.143197328584,
      "SliceThickness": 3.0,
      "SmallestImagePixelValue": 0,
      "SmokingStatus": "UNKNOWN",
      "SoftwareVersions": "syngo MR E11",
      "SpacingBetweenSlices": 2.9999999722041,
      "SpecificCharacterSet": "ISO_IR 100",
      "StudyID": "103-1",
      "StudyTime": "194242.142000",
      "TransmitCoilName": "Body",
      "VariableFlipAngleFlag": "N",
      "WindowCenterWidthExplanation": "Algo1",
      "dBdt": 0.0},
    "slices": {}
  },
  "time": {
    "samples": {
      "AcquisitionNumber": [1, 2, 3, 4, 5, 6, 7, 8, 9, 10, 11, 12, 13, 14, 15, 16, 17, 18, 19, 20, 21, 22, 23, 24, 25, 26, 27, 28, 29, 30, 31, 32, 33, 34, 35, 36, 37, 38, 39, 40, 41, 42, 43, 44, 45, 46, 47, 48, 49, 50, 51, 52, 53, 54, 55, 56, 57, 58, 59, 60, 61, 62, 63, 64, 65, 66, 67, 68, 69, 70, 71, 72, 73, 74, 75, 76, 77, 78, 79, 80, 81, 82, 83, 84, 85, 86, 87, 88, 89, 90, 91, 92, 93, 94, 95, 96, 97, 98, 99, 100, 101, 102, 103, 104, 105, 106, 107, 108, 109, 110, 111, 112, 113, 114, 115, 116, 117, 118, 119, 120, 121, 122],
      "AcquisitionTime": ["195237.432500", "195239.932500", "195242.432500", "195244.932500", "195247.432500", "195249.932500", "195252.432500", "195254.932500", "195257.432500", "195259.932500", "195302.432500", "195304.932500", "195307.432500", "195309.932500", "195312.432500", "195314.932500", "195317.432500", "195319.932500", "195322.432500", "195324.932500", "195327.432500", "195329.932500", "195332.432500", "195334.932500", "195337.432500", "195339.932500", "195342.432500", "195344.932500", "195347.432500", "195349.932500", "195352.432500", "195354.932500", "195357.432500", "195359.932500", "195402.432500", "195404.932500", "195407.432500", "195409.932500", "195412.432500", "195414.932500", "195417.432500", "195419.932500", "195422.432500", "195424.932500", "195427.432500", "195429.932500", "195432.432500", "195434.932500", "195437.432500", "195439.932500", "195442.432500", "195444.932500", "195447.432500", "195449.932500", "195452.432500", "195454.932500", "195457.432500", "195459.932500", "195502.432500", "195504.932500", "195507.432500", "195509.932500", "195512.432500", "195514.932500", "195517.432500", "195519.932500", "195522.432500", "195524.932500", "195527.432500", "195529.932500", "195532.432500", "195534.932500", "195537.432500", "195539.932500", "195542.432500", "195544.932500", "195547.432500", "195549.932500", "195552.432500", "195554.932500", "195557.432500", "195559.932500", "195602.432500", "195604.932500", "195607.432500", "195609.932500", "195612.432500", "195614.932500", "195617.432500", "195619.932500", "195622.432500", "195624.932500", "195627.432500", "195629.932500", "195632.432500", "195634.932500", "195637.432500", "195639.932500", "195642.432500", "195644.932500", "195647.432500", "195649.932500", "195652.432500", "195654.932500", "195657.432500", "195659.932500", "195702.432500", "195704.932500", "195707.432500", "195709.932500", "195712.432500", "195714.932500", "195717.432500", "195719.932500", "195722.432500", "195724.932500", "195727.432500", "195729.932500", "195732.432500", "195734.932500", "195737.432500", "195739.932500"],
      "ContentTime": ["195327.932000", "195327.936000", "195327.939000", "195327.942000", "195327.945000", "195327.947000", "195327.950000", "195327.953000", "195327.956000", "195327.958000", "195327.961000", "195327.963000", "195327.966000", "195327.969000", "195327.972000", "195327.974000", "195327.977000", "195327.980000", "195327.982000", "195327.985000", "195427.928000", "195427.931000", "195427.934000", "195427.936000", "195427.939000", "195427.942000", "195427.945000", "195427.948000", "195427.950000", "195427.953000", "195427.956000", "195427.959000", "195427.961000", "195427.964000", "195427.967000", "195427.970000", "195427.972000", "195427.975000", "195427.978000", "195427.980000", "195427.983000", "195427.986000", "195427.988000", "195427.991000", "195527.927000", "195527.930000", "195527.933000", "195527.935000", "195527.939000", "195527.942000", "195527.945000", "195527.947000", "195527.950000", "195527.953000", "195527.956000", "195527.958000", "195527.961000", "195527.964000", "195527.966000", "195527.969000", "195527.972000", "195527.975000", "195527.977000", "195527.980000", "195527.983000", "195527.985000", "195527.988000", "195527.991000", "195627.928000", "195627.931000", "195627.933000", "195627.936000", "195627.939000", "195627.942000", "195627.945000", "195627.947000", "195627.950000", "195627.964000", "195627.966000", "195627.969000", "195627.972000", "195627.975000", "195627.977000", "195627.980000", "195627.983000", "195627.995000", "195627.998000", "195628.002000", "195628.004000", "195628.007000", "195628.010000", "195628.012000", "195727.927000", "195727.930000", "195727.932000", "195727.936000", "195727.939000", "195727.942000", "195727.944000", "195727.947000", "195727.950000", "195727.953000", "195727.955000", "195727.958000", "195727.961000", "195727.963000", "195727.966000", "195727.969000", "195727.972000", "195727.974000", "195727.977000", "195727.980000", "195727.982000", "195727.985000", "195727.988000", "195727.990000", "195741.963000", "195741.966000", "195741.968000", "195741.971000", "195741.975000", "195741.977000"],
      "InstanceCreationTime": ["195327.932000", "195327.936000", "195327.939000", "195327.942000", "195327.945000", "195327.947000", "195327.950000", "195327.953000", "195327.956000", "195327.958000", "195327.961000", "195327.963000", "195327.966000", "195327.969000", "195327.972000", "195327.974000", "195327.977000", "195327.980000", "195327.982000", "195327.985000", "195427.928000", "195427.931000", "195427.934000", "195427.936000", "195427.939000", "195427.942000", "195427.945000", "195427.948000", "195427.950000", "195427.953000", "195427.956000", "195427.959000", "195427.961000", "195427.964000", "195427.967000", "195427.970000", "195427.972000", "195427.975000", "195427.978000", "195427.980000", "195427.983000", "195427.986000", "195427.988000", "195427.991000", "195527.927000", "195527.930000", "195527.933000", "195527.935000", "195527.939000", "195527.942000", "195527.945000", "195527.947000", "195527.950000", "195527.953000", "195527.956000", "195527.958000", "195527.961000", "195527.964000", "195527.966000", "195527.969000", "195527.972000", "195527.975000", "195527.977000", "195527.980000", "195527.983000", "195527.985000", "195527.988000", "195527.991000", "195627.928000", "195627.931000", "195627.933000", "195627.936000", "195627.939000", "195627.942000", "195627.945000", "195627.947000", "195627.950000", "195627.964000", "195627.966000", "195627.969000", "195627.972000", "195627.975000", "195627.977000", "195627.980000", "195627.983000", "195627.995000", "195627.998000", "195628.002000", "195628.004000", "195628.007000", "195628.010000", "195628.012000", "195727.927000", "195727.930000", "195727.932000", "195727.936000", "195727.939000", "195727.942000", "195727.944000", "195727.947000", "195727.950000", "195727.953000", "195727.955000", "195727.958000", "195727.961000", "195727.963000", "195727.966000", "195727.969000", "195727.972000", "195727.974000", "195727.977000", "195727.980000", "195727.982000", "195727.985000", "195727.988000", "195727.990000", "195741.963000", "195741.966000", "195741.968000", "195741.971000", "195741.975000", "195741.977000"],
      "InstanceNumber": [1, 2, 3, 4, 5, 6, 7, 8, 9, 10, 11, 12, 13, 14, 15, 16, 17, 18, 19, 20, 21, 22, 23, 24, 25, 26, 27, 28, 29, 30, 31, 32, 33, 34, 35, 36, 37, 38, 39, 40, 41, 42, 43, 44, 45, 46, 47, 48, 49, 50, 51, 52, 53, 54, 55, 56, 57, 58, 59, 60, 61, 62, 63, 64, 65, 66, 67, 68, 69, 70, 71, 72, 73, 74, 75, 76, 77, 78, 79, 80, 81, 82, 83, 84, 85, 86, 87, 88, 89, 90, 91, 92, 93, 94, 95, 96, 97, 98, 99, 100, 101, 102, 103, 104, 105, 106, 107, 108, 109, 110, 111, 112, 113, 114, 115, 116, 117, 118, 119, 120, 121, 122],
      "LargestImagePixelValue": [1639, 1694, 1917, 1654, 1640, 1788, 1695, 1643, 1638, 1661, 1774, 1637, 1712, 1614, 1681, 1615, 1647, 1665, 1631, 1613, 1704, 1626, 1630, 1644, 1617, 1631, 1633, 1619, 1646, 1793, 1637, 1632, 1634, 1637, 1659, 1613, 1599, 1625, 1853, 1617, 1623, 1634, 1686, 1767, 1610, 1598, 1714, 1659, 1616, 1678, 1667, 1623, 1614, 1631, 1673, 1662, 1649, 1645, 1602, 1597, 1733, 1622, 1686, 1650, 1620, 1771, 1611, 1743, 1714, 1738, 1621, 1615, 1685, 1814, 1620, 1641, 1645, 1622, 1694, 1634, 1615, 1599, 1775, 1637, 1571, 1601, 1567, 1641, 1707, 1594, 1611, 1727, 1659, 1631, 1759, 1677, 1615, 1610, 1619, 1581, 1682, 1733, 1633, 1781, 1594, 1632, 1887, 1611, 1626, 1658, 1607, 1600, 1640, 1627, 1710, 1718, 1611, 1606, 1615, 1615, 1809, 1752],
      "WindowCenter": [708.0, 707.0, 707.0, 706.0, 706.0, 707.0, 706.0, 707.0, 706.0, 706.0, 707.0, 707.0, 707.0, 706.0, 706.0, 707.0, 707.0, 706.0, 706.0, 706.0, 707.0, 706.0, 706.0, 706.0, 706.0, 706.0, 706.0, 706.0, 706.0, 707.0, 706.0, 705.0, 705.0, 705.0, 705.0, 706.0, 705.0, 706.0, 707.0, 705.0, 706.0, 706.0, 706.0, 707.0, 706.0, 705.0, 706.0, 706.0, 706.0, 705.0, 705.0, 705.0, 705.0, 705.0, 705.0, 706.0, 706.0, 706.0, 705.0, 706.0, 706.0, 705.0, 705.0, 706.0, 705.0, 706.0, 707.0, 708.0, 707.0, 707.0, 706.0, 706.0, 706.0, 706.0, 704.0, 705.0, 704.0, 704.0, 705.0, 705.0, 705.0, 705.0, 707.0, 706.0, 705.0, 705.0, 705.0, 705.0, 706.0, 705.0, 706.0, 706.0, 706.0, 707.0, 706.0, 705.0, 704.0, 705.0, 705.0, 705.0, 705.0, 706.0, 706.0, 706.0, 705.0, 706.0, 708.0, 705.0, 705.0, 706.0, 705.0, 705.0, 706.0, 706.0, 706.0, 705.0, 705.0, 705.0, 705.0, 704.0, 706.0, 706.0],
      "WindowWidth": [1504.0, 1500.0, 1501.0, 1499.0, 1499.0, 1500.0, 1499.0, 1500.0, 1499.0, 1499.0, 1501.0, 1499.0, 1502.0, 1499.0, 1499.0, 1500.0, 1500.0, 1498.0, 1498.0, 1498.0, 1500.0, 1498.0, 1498.0, 1499.0, 1498.0, 1497.0, 1497.0, 1499.0, 1498.0, 1500.0, 1497.0, 1496.0, 1496.0, 1496.0, 1496.0, 1498.0, 1496.0, 1497.0, 1499.0, 1495.0, 1498.0, 1498.0, 1497.0, 1499.0, 1497.0, 1495.0, 1498.0, 1498.0, 1498.0, 1496.0, 1494.0, 1495.0, 1496.0, 1495.0, 1495.0, 1497.0, 1497.0, 1497.0, 1496.0, 1497.0, 1498.0, 1496.0, 1496.0, 1498.0, 1496.0, 1498.0, 1500.0, 1503.0, 1500.0, 1499.0, 1498.0, 1499.0, 1497.0, 1497.0, 1494.0, 1494.0, 1494.0, 1494.0, 1495.0, 1496.0, 1496.0, 1495.0, 1499.0, 1498.0, 1495.0, 1495.0, 1496.0, 1496.0, 1497.0, 1496.0, 1497.0, 1498.0, 1498.0, 1499.0, 1498.0, 1495.0, 1494.0, 1495.0, 1495.0, 1495.0, 1496.0, 1498.0, 1498.0, 1497.0, 1495.0, 1498.0, 1501.0, 1496.0, 1495.0, 1496.0, 1494.0, 1496.0, 1498.0, 1497.0, 1496.0, 1496.0, 1495.0, 1495.0, 1495.0, 1494.0, 1498.0, 1499.0]
    },
    "slices": {}
  }
}