{
  "AcquisitionMatrixPE": 72,
  "AcquisitionNumber": 1,
  "AcquisitionTime": "20:15:45.517500",
  "BandwidthPerPixelPhaseEncode": 24.366,
  "BaseResolution": 72,
  "BodyPartExamined": "BRAIN",
  "CoilCombinationMethod": "Sum of Squares",
  "ConsistencyInfo": "N4_VE11C_LATEST_20160120",
  "ConversionSoftware": "dcm2niix",
  "ConversionSoftwareVersion": "v1.0.20220720",
  "DerivedVendorReportedEchoSpacing": 0.000570011,
  "DeviceSerialNumber": "45219",
  "DwellTime": 3.5e-06,
  "EchoTime": 0.03,
  "EchoTrainLength": 72,
  "EffectiveEchoSpacing": 0.000570011,
  "FlipAngle": 80,
  "HeudiconvVersion": "1.1.6",
  "ImageOrientationPatientDICOM": [0.998421, -0.0484236, 0.0284637, 0.0505779, 0.995462, -0.0805996],
  "ImageOrientationText": "Tra>Cor(-4.7)>Sag(1.4)",
  "ImageType": [
    "ORIGINAL",
    "PRIMARY",
    "M",
    "ND",
    "NORM",
    "MOSAIC"
],
  "ImagingFrequency": 123.182,
  "InPlanePhaseEncodingDirectionDICOM": "COL",
  "InstitutionAddress": "First Avenue 660,New York,NYC,US,10016",
  "InstitutionName": "NYU LANGONE CBI",
  "InstitutionalDepartmentName": "Department",
  "MRAcquisitionType": "2D",
  "MagneticFieldStrength": 3,
  "Manufacturer": "Siemens",
  "ManufacturersModelName": "Skyra",
  "MatrixCoilMode": "SENSE",
  "Modality": "MR",
  "NonlinearGradientCorrection": false,
  "PartialFourier": 1,
  "PatientPosition": "HFS",
  "PercentPhaseFOV": 100,
  "PercentSampling": 100,
  "PhaseEncodingDirection": "j-",
  "PhaseEncodingSteps": 72,
  "PhaseResolution": 1,
  "PixelBandwidth": 1985,
  "ProcedureStepDescription": "MRI BRAIN WITHOUT IV CONTRAST",
  "ProtocolName": "TASK_CD",
  "PulseSequenceDetails": "%SiemensSeq%\\ep2d_bold",
  "ReceiveCoilActiveElements": "HE1-4",
  "ReceiveCoilName": "HeadNeck_20",
  "ReconMatrixPE": 72,
  "RepetitionTime": 2.5,
  "SAR": 0.103157,
  "ScanOptions": "FS",
  "ScanningSequence": "EP",
  "SequenceName": "*epfid2d1_72",
  "SequenceVariant": "SK",
  "SeriesDescription": "TASK_CD",
  "SeriesNumber": 14,
  "ShimSetting": [-927, -6820, 4951, 309, -113, -109, 207, -270],
  "SliceThickness": 3,
  "SliceTiming": [1.24, 0, 1.305, 0.065, 1.37, 0.13, 1.435, 0.195, 1.5, 0.26, 1.565, 0.325, 1.63, 0.39, 1.6975, 0.4575, 1.7625, 0.5225, 1.8275, 0.5875, 1.8925, 0.6525, 1.9575, 0.7175, 2.0225, 0.7825, 2.0875, 0.8475, 2.1525, 0.9125, 2.2175, 0.9775, 2.2825, 1.0425, 2.35, 1.11, 2.415, 1.175],
  "SoftwareVersions": "syngo MR E11",
  "SpacingBetweenSlices": 3,
  "StationName": "MRC45219",
  "TaskName": "cd",
  "TotalReadoutTime": 0.0404708,
  "TxRefAmp": 466.473,
  "dcmmeta_affine": [
    [-2.9952638149261475, 0.15173359215259552, 0.0732947438955307, 102.72929382324219],
    [0.14527073502540588, 2.9863874912261963, -0.24573592841625214, -117.35093688964844],
    [0.08539097011089325, 0.2417987734079361, 2.9890201091766357, -83.57135009765625],
    [0.0, 0.0, 0.0, 1.0]
],
  "dcmmeta_reorient_transform": [
    [0.0, -1.0, 0.0, 71.0],
    [1.0, 0.0, 0.0, 0.0],
    [0.0, 0.0, 1.0, 0.0],
    [0.0, 0.0, 0.0, 1.0]
],
  "dcmmeta_shape": [72, 72, 38, 132],
  "dcmmeta_slice_dim": 2,
  "dcmmeta_version": 0.6,
  "global": {
    "const": {
      "AccessionNumber": "103-1",
      "AcquisitionMatrix": [72, 0, 0, 72],
      "AngioFlag": "N",
      "BitsAllocated": 16,
      "BitsStored": 12,
      "BodyPartExamined": "BRAIN",
      "Columns": 504,
      "CountryOfResidence": "United States of America [1]",
      "EchoNumbers": 1,
      "EchoTime": 30.0,
      "EchoTrainLength": 72,
      "FlipAngle": 80.0,
      "HighBit": 11,
      "ImageOrientationPatient": [0.99842124249101, -0.04842357675, 0.02846365678288, 0.05057786402937, 0.99546249813662, -0.0805995935091],
      "ImagePositionPatient": [-793.2537999295, -708.36379883586, -32.619548851578],
      "ImageType": [
        "ORIGINAL",
        "PRIMARY",
        "M",
        "ND",
        "NORM",
        "MOSAIC"
],
      "ImagedNucleus": "1H",
      "ImagingFrequency": 123.182061,
      "InPlanePhaseEncodingDirection": "COL",
      "MRAcquisitionType": "2D",
      "MagneticFieldStrength": 3.0,
      "Manufacturer": "SIEMENS",
      "ManufacturerModelName": "Skyra",
      "Modality": "MR",
      "NumberOfAverages": 1.0,
      "NumberOfPhaseEncodingSteps": 72,
      "PercentPhaseFieldOfView": 100.0,
      "PercentSampling": 100.0,
      "PerformedProcedureStepStartTime": "194242.313000",
      "PhotometricInterpretation": "MONOCHROME2",
      "PixelBandwidth": 1985.0,
      "PixelRepresentation": 0,
      "PixelSpacing": [3.0, 3.0],
      "PregnancyStatus": 4,
      "ProcedureCodeSequence": [
        {
          "CodeMeaning": "MRI BRAIN WITHOUT IV CONTRAST",
          "CodeValue": "IMG269",
          "CodingSchemeDesignator": "L"
        }
],
      "ProtocolName": "TASK_CD",
      "RepetitionTime": 2500.0,
      "RequestAttributesSequence": [
        {
          "RequestedProcedureID": "353073276",
          "ScheduledProcedureStepDescription": "MRI BRAIN WITHOUT IV CONTRAST",
          "ScheduledProcedureStepID": "E10488271",
          "ScheduledProtocolCodeSequence": [
            {
              "CodeMeaning": "MRI BRAIN WITHOUT IV CONTRAST",
              "CodeValue": "651061",
              "CodingSchemeDesignator": "L"
            }
]
        }
],
      "RequestedProcedureCodeSequence": [
        {
          "CodeMeaning": "MRI BRAIN WITHOUT IV CONTRAST",
          "CodeValue": "IMG269",
          "CodingSchemeDesignator": "L"
        }
],
      "Rows": 504,
      "SAR": 0.10315676882225,
      "SamplesPerPixel": 1,
      "ScanOptions": "FS",
      "ScanningSequence": "EP",
      "SequenceName": "*epfid2d1_72",
      "SequenceVariant": "SK",
      "SeriesDescription": "TASK_CD",
      "SeriesNumber": 14,
      "SeriesTime": "201637.325000",
      "SliceLocation": -71.143197328584,
      "SliceThickness": 3.0,
      "SmallestImagePixelValue": 0,
      "SmokingStatus": "UNKNOWN",
      "SoftwareVersions": "syngo MR E11",
      "SpacingBetweenSlices": 2.9999999722041,
      "SpecificCharacterSet": "ISO_IR 100",
      "StudyID": "103-1",
      "StudyTime": "194242.142000",
      "TransmitCoilName": "Body",
      "VariableFlipAngleFlag": "N",
      "WindowCenterWidthExplanation": "Algo1",
      "dBdt": 0.0},
    "slices": {}
  },
  "time": {
    "samples": {
      "AcquisitionNumber": [1, 2, 3, 4, 5, 6, 7, 8, 9, 10, 11, 12, 13, 14, 15, 16, 17, 18, 19, 20, 21, 22, 23, 24, 25, 26, 27, 28, 29, 30, 31, 32, 33, 34, 35, 36, 37, 38, 39, 40, 41, 42, 43, 44, 45, 46, 47, 48, 49, 50, 51, 52, 53, 54, 55, 56, 57, 58, 59, 60, 61, 62, 63, 64, 65, 66, 67, 68, 69, 70, 71, 72, 73, 74, 75, 76, 77, 78, 79, 80, 81, 82, 83, 84, 85, 86, 87, 88, 89, 90, 91, 92, 93, 94, 95, 96, 97, 98, 99, 100, 101, 102, 103, 104, 105, 106, 107, 108, 109, 110, 111, 112, 113, 114, 115, 116, 117, 118, 119, 120, 121, 122, 123, 124, 125, 126, 127, 128, 129, 130, 131, 132],
      "AcquisitionTime": ["201545.517500", "201548.017500", "201550.517500", "201553.017500", "201555.517500", "201558.017500", "201600.517500", "201603.017500", "201605.517500", "201608.017500", "201610.517500", "201613.017500", "201615.517500", "201618.017500", "201620.517500", "201623.017500", "201625.517500", "201628.017500", "201630.517500", "201633.017500", "201635.517500", "201638.017500", "201640.517500", "201643.017500", "201645.517500", "201648.017500", "201650.517500", "201653.017500", "201655.517500", "201658.017500", "201700.517500", "201703.017500", "201705.517500", "201708.017500", "201710.517500", "201713.017500", "201715.517500", "201718.017500", "201720.517500", "201723.017500", "201725.517500", "201728.017500", "201730.517500", "201733.017500", "201735.517500", "201738.017500", "201740.517500", "201743.017500", "201745.517500", "201748.017500", "201750.517500", "201753.017500", "201755.517500", "201758.017500", "201800.517500", "201803.017500", "201805.517500", "201808.017500", "201810.517500", "201813.017500", "201815.517500", "201818.017500", "201820.517500", "201823.017500", "201825.517500", "201828.017500", "201830.517500", "201833.017500", "201835.517500", "201838.017500", "201840.517500", "201843.017500", "201845.517500", "201848.017500", "201850.517500", "201853.017500", "201855.517500", "201858.017500", "201900.517500", "201903.017500", "201905.517500", "201908.017500", "201910.517500", "201913.017500", "201915.517500", "201918.017500", "201920.517500", "201923.017500", "201925.517500", "201928.017500", "201930.517500", "201933.017500", "201935.517500", "201938.017500", "201940.517500", "201943.017500", "201945.517500", "201948.017500", "201950.517500", "201953.017500", "201955.517500", "201958.017500", "202000.517500", "202003.017500", "202005.517500", "202008.017500", "202010.517500", "202013.017500", "202015.517500", "202018.017500", "202020.517500", "202023.017500", "202025.517500", "202028.017500", "202030.517500", "202033.017500", "202035.517500", "202038.017500", "202040.517500", "202043.017500", "202045.517500", "202048.017500", "202050.517500", "202053.017500", "202055.517500", "202058.017500", "202100.517500", "202103.017500", "202105.517500", "202108.017500", "202110.517500", "202113.017500"],
      "ContentTime": ["201637.332000", "201637.336000", "201637.339000", "201637.341000", "201637.344000", "201637.347000", "201637.350000", "201637.353000", "201637.355000", "201637.358000", "201637.361000", "201637.363000", "201637.366000", "201637.369000", "201637.372000", "201637.374000", "201637.377000", "201637.380000", "201637.383000", "201637.386000", "201737.324000", "201737.390000", "201737.406000", "201737.409000", "201737.412000", "201737.414000", "201737.417000", "201737.420000", "201737.423000", "201737.425000", "201737.428000", "201737.431000", "201737.434000", "201737.437000", "201737.440000", "201737.442000", "201737.445000", "201737.448000", "201737.451000", "201737.453000", "201737.456000", "201737.459000", "201737.461000", "201737.464000", "201837.326000", "201837.329000", "201837.332000", "201837.335000", "201837.338000", "201837.341000", "201837.344000", "201837.347000", "201837.350000", "201837.352000", "201837.355000", "201837.358000", "201837.361000", "201837.363000", "201837.366000", "201837.369000", "201837.371000", "201837.374000", "201837.377000", "201837.380000", "201837.382000", "201837.385000", "201837.388000", "201837.392000", "201857.324000", "201857.329000", "201857.332000", "201857.335000", "201857.337000", "201857.340000", "201857.343000", "201857.345000", "201957.324000", "201957.328000", "201957.331000", "201957.334000", "201957.336000", "201957.339000", "201957.342000", "201957.344000", "201957.347000", "201957.350000", "201957.353000", "201957.355000", "201957.358000", "201957.361000", "201957.364000", "201957.366000", "201957.369000", "201957.372000", "201957.374000", "201957.377000", "201957.380000", "201957.383000", "201957.386000", "201957.388000", "201957.391000", "202057.326000", "202057.329000", "202057.332000", "202057.335000", "202057.337000", "202057.340000", "202057.343000", "202057.346000", "202057.348000", "202057.351000", "202057.354000", "202057.357000", "202057.360000", "202057.363000", "202057.366000", "202057.369000", "202057.372000", "202057.374000", "202057.377000", "202057.380000", "202057.383000", "202057.386000", "202057.388000", "202057.391000", "202114.924000", "202114.927000", "202114.929000", "202114.932000", "202114.935000", "202114.938000", "202114.941000"],
      "InstanceCreationTime": ["201637.332000", "201637.336000", "201637.339000", "201637.341000", "201637.344000", "201637.347000", "201637.350000", "201637.353000", "201637.355000", "201637.358000", "201637.361000", "201637.363000", "201637.366000", "201637.369000", "201637.372000", "201637.374000", "201637.377000", "201637.380000", "201637.383000", "201637.386000", "201737.324000", "201737.390000", "201737.406000", "201737.409000", "201737.412000", "201737.414000", "201737.417000", "201737.420000", "201737.423000", "201737.425000", "201737.428000", "201737.431000", "201737.434000", "201737.437000", "201737.440000", "201737.442000", "201737.445000", "201737.448000", "201737.451000", "201737.453000", "201737.456000", "201737.459000", "201737.461000", "201737.464000", "201837.326000", "201837.329000", "201837.332000", "201837.335000", "201837.338000", "201837.341000", "201837.344000", "201837.347000", "201837.350000", "201837.352000", "201837.355000", "201837.358000", "201837.361000", "201837.363000", "201837.366000", "201837.369000", "201837.371000", "201837.374000", "201837.377000", "201837.380000", "201837.382000", "201837.385000", "201837.388000", "201837.392000", "201857.324000", "201857.329000", "201857.332000", "201857.335000", "201857.337000", "201857.340000", "201857.343000", "201857.345000", "201957.324000", "201957.328000", "201957.331000", "201957.334000", "201957.336000", "201957.339000", "201957.342000", "201957.344000", "201957.347000", "201957.350000", "201957.353000", "201957.355000", "201957.358000", "201957.361000", "201957.364000", "201957.366000", "201957.369000", "201957.372000", "201957.374000", "201957.377000", "201957.380000", "201957.383000", "201957.386000", "201957.388000", "201957.391000", "202057.326000", "202057.329000", "202057.332000", "202057.335000", "202057.337000", "202057.340000", "202057.343000", "202057.346000", "202057.348000", "202057.351000", "202057.354000", "202057.357000", "202057.360000", "202057.363000", "202057.366000", "202057.369000", "202057.372000", "202057.374000", "202057.377000", "202057.380000", "202057.383000", "202057.386000", "202057.388000", "202057.391000", "202114.924000", "202114.927000", "202114.929000", "202114.932000", "202114.935000", "202114.938000", "202114.941000"],
      "InstanceNumber": [1, 2, 3, 4, 5, 6, 7, 8, 9, 10, 11, 12, 13, 14, 15, 16, 17, 18, 19, 20, 21, 22, 23, 24, 25, 26, 27, 28, 29, 30, 31, 32, 33, 34, 35, 36, 37, 38, 39, 40, 41, 42, 43, 44, 45, 46, 47, 48, 49, 50, 51, 52, 53, 54, 55, 56, 57, 58, 59, 60, 61, 62, 63, 64, 65, 66, 67, 68, 69, 70, 71, 72, 73, 74, 75, 76, 77, 78, 79, 80, 81, 82, 83, 84, 85, 86, 87, 88, 89, 90, 91, 92, 93, 94, 95, 96, 97, 98, 99, 100, 101, 102, 103, 104, 105, 106, 107, 108, 109, 110, 111, 112, 113, 114, 115, 116, 117, 118, 119, 120, 121, 122, 123, 124, 125, 126, 127, 128, 129, 130, 131, 132],
      "LargestImagePixelValue": [1822, 1946, 1653, 1660, 1643, 1776, 1811, 1632, 1633, 1635, 1627, 1795, 1780, 2020, 1727, 1642, 1686, 1725, 1620, 1784, 1623, 1618, 2025, 1617, 1727, 1557, 1606, 1645, 1624, 1642, 1822, 1638, 1570, 1820, 1690, 1649, 1733, 1564, 1647, 1602, 1666, 1679, 1639, 1615, 1619, 1677, 1576, 1571, 1642, 1673, 1623, 1614, 1747, 1685, 1633, 1646, 1689, 1691, 1570, 1561, 1564, 1612, 1578, 1590, 1549, 1565, 1641, 1673, 1713, 1619, 1612, 1577, 1636, 1553, 1706, 1600, 1611, 1620, 1663, 1538, 1843, 1881, 1686, 1769, 1829, 1623, 1601, 1694, 1528, 1521, 1705, 1742, 1566, 1691, 1618, 1549, 1604, 1718, 1768, 1593, 1827, 1608, 1708, 1592, 1541, 1638, 1592, 1777, 1511, 1782, 1594, 1718, 1537, 1725, 1629, 1533, 1808, 1739, 1590, 1593, 1582, 1787, 1717, 1570, 1682, 1966, 1531, 1740, 1826, 1689, 1637, 1543],
      "WindowCenter": [701.0, 702.0, 702.0, 704.0, 705.0, 707.0, 707.0, 705.0, 705.0, 705.0, 705.0, 706.0, 706.0, 708.0, 706.0, 705.0, 704.0, 705.0, 704.0, 705.0, 704.0, 704.0, 706.0, 704.0, 704.0, 704.0, 704.0, 703.0, 702.0, 703.0, 705.0, 703.0, 703.0, 705.0, 705.0, 703.0, 703.0, 703.0, 704.0, 704.0, 705.0, 705.0, 704.0, 705.0, 704.0, 704.0, 703.0, 703.0, 703.0, 703.0, 704.0, 704.0, 704.0, 704.0, 705.0, 705.0, 705.0, 705.0, 704.0, 704.0, 703.0, 703.0, 703.0, 703.0, 702.0, 702.0, 703.0, 704.0, 705.0, 704.0, 704.0, 703.0, 704.0, 705.0, 706.0, 704.0, 704.0, 704.0, 704.0, 703.0, 706.0, 706.0, 704.0, 705.0, 705.0, 704.0, 704.0, 705.0, 704.0, 703.0, 704.0, 704.0, 704.0, 706.0, 704.0, 703.0, 704.0, 704.0, 704.0, 703.0, 705.0, 703.0, 704.0, 705.0, 706.0, 705.0, 704.0, 706.0, 704.0, 705.0, 703.0, 704.0, 704.0, 705.0, 705.0, 704.0, 706.0, 706.0, 705.0, 704.0, 704.0, 705.0, 706.0, 705.0, 705.0, 706.0, 703.0, 704.0, 704.0, 703.0, 703.0, 703.0],
      "WindowWidth": [1486.0, 1488.0, 1489.0, 1493.0, 1495.0, 1499.0, 1500.0, 1496.0, 1495.0, 1494.0, 1496.0, 1498.0, 1498.0, 1503.0, 1498.0, 1495.0, 1494.0, 1495.0, 1493.0, 1496.0, 1494.0, 1494.0, 1498.0, 1492.0, 1494.0, 1493.0, 1492.0, 1490.0, 1488.0, 1490.0, 1495.0, 1490.0, 1490.0, 1495.0, 1495.0, 1491.0, 1491.0, 1490.0, 1492.0, 1492.0, 1494.0, 1494.0, 1493.0, 1495.0, 1494.0, 1492.0, 1490.0, 1491.0, 1490.0, 1491.0, 1492.0, 1493.0, 1493.0, 1494.0, 1495.0, 1495.0, 1494.0, 1494.0, 1492.0, 1493.0, 1491.0, 1490.0, 1491.0, 1491.0, 1488.0, 1487.0, 1489.0, 1492.0, 1494.0, 1494.0, 1494.0, 1491.0, 1493.0, 1496.0, 1497.0, 1493.0, 1493.0, 1493.0, 1492.0, 1491.0, 1500.0, 1498.0, 1492.0, 1494.0, 1495.0, 1492.0, 1491.0, 1495.0, 1491.0, 1489.0, 1492.0, 1493.0, 1493.0, 1496.0, 1492.0, 1490.0, 1493.0, 1493.0, 1493.0, 1490.0, 1494.0, 1490.0, 1493.0, 1495.0, 1496.0, 1494.0, 1493.0, 1496.0, 1493.0, 1494.0, 1489.0, 1493.0, 1493.0, 1495.0, 1494.0, 1493.0, 1496.0, 1496.0, 1494.0, 1493.0, 1492.0, 1494.0, 1497.0, 1494.0, 1495.0, 1498.0, 1491.0, 1493.0, 1493.0, 1490.0, 1491.0, 1491.0]
    },
    "slices": {}
  }
}