{
  "AcquisitionMatrixPE": 72,
  "AcquisitionNumber": 1,
  "AcquisitionTime": "16:19:2.030000",
  "BandwidthPerPixelPhaseEncode": 24.366,
  "BaseResolution": 72,
  "BodyPartExamined": "BRAIN",
  "CoilCombinationMethod": "Sum of Squares",
  "ConsistencyInfo": "N4_VE11C_LATEST_20160120",
  "ConversionSoftware": "dcm2niix",
  "ConversionSoftwareVersion": "v1.0.20220720",
  "DerivedVendorReportedEchoSpacing": 0.000570011,
  "DeviceSerialNumber": "45219",
  "DwellTime": 3.5e-06,
  "EchoTime": 0.03,
  "EchoTrainLength": 72,
  "EffectiveEchoSpacing": 0.000570011,
  "FlipAngle": 80,
  "HeudiconvVersion": "1.1.6",
  "ImageComments": "Reference volume for motion correction.",
  "ImageOrientationPatientDICOM": [0.998971, -0.00873354, 0.0445132, 6.03993e-08, 0.981291, 0.192529],
  "ImageOrientationText": "Tra>Cor(11.1)>Sag(2.6)",
  "ImageType": [
    "ORIGINAL",
    "PRIMARY",
    "M",
    "ND",
    "NORM",
    "MOCO",
    "MOSAIC"
],
  "ImagingFrequency": 123.182,
  "InPlanePhaseEncodingDirectionDICOM": "COL",
  "InstitutionAddress": "First Avenue 660,New York,NYC,US,10016",
  "InstitutionName": "NYU LANGONE CBI",
  "InstitutionalDepartmentName": "Department",
  "MRAcquisitionType": "2D",
  "MagneticFieldStrength": 3,
  "Manufacturer": "Siemens",
  "ManufacturersModelName": "Skyra",
  "MatrixCoilMode": "SENSE",
  "Modality": "MR",
  "NonlinearGradientCorrection": false,
  "PartialFourier": 1,
  "PatientPosition": "HFS",
  "PercentPhaseFOV": 100,
  "PercentSampling": 100,
  "PhaseEncodingDirection": "j-",
  "PhaseEncodingSteps": 72,
  "PhaseResolution": 1,
  "PixelBandwidth": 1985,
  "ProcedureStepDescription": "MRI BRAIN WITHOUT IV CONTRAST",
  "ProtocolName": "REST_1_MoCo",
  "PulseSequenceDetails": "%SiemensSeq%\\ep2d_bold",
  "ReceiveCoilActiveElements": "HE1-4",
  "ReceiveCoilName": "HeadNeck_20",
  "ReconMatrixPE": 72,
  "RepetitionTime": 2.5,
  "SAR": 0.147254,
  "ScanOptions": "FS",
  "ScanningSequence": "EP",
  "SequenceName": "*epfid2d1_72",
  "SequenceVariant": "SK",
  "SeriesDescription": "MoCoSeries",
  "SeriesNumber": 7,
  "ShimSetting": [-873, -7026, 5081, 330, -204, -171, 25, -130],
  "SliceThickness": 3,
  "SliceTiming": [1.24, 0, 1.305, 0.065, 1.37, 0.13, 1.435, 0.195, 1.5, 0.26, 1.565, 0.325, 1.63, 0.39, 1.695, 0.455, 1.76, 0.52, 1.8275, 0.5875, 1.8925, 0.6525, 1.9575, 0.7175, 2.0225, 0.7825, 2.0875, 0.8475, 2.1525, 0.9125, 2.2175, 0.9775, 2.2825, 1.0425, 2.3475, 1.1075, 2.4125, 1.175],
  "SoftwareVersions": "syngo MR E11",
  "SpacingBetweenSlices": 3,
  "StationName": "MRC45219",
  "TaskName": "rest",
  "TotalReadoutTime": 0.0404708,
  "TxRefAmp": 435.26,
  "dcmmeta_affine": [
    [-2.9969117641448975, 1.811978762589206e-07, 0.1360856592655182, 105.37189483642578],
    [0.02620062045753002, 2.943873882293701, 0.5769925117492676, -120.76266479492188],
    [0.13353964686393738, -0.5775871276855469, 2.940843343734741, -6.2603302001953125],
    [0.0, 0.0, 0.0, 1.0]
],
  "dcmmeta_reorient_transform": [
    [0.0, -1.0, 0.0, 71.0],
    [1.0, 0.0, 0.0, 0.0],
    [0.0, 0.0, 1.0, 0.0],
    [0.0, 0.0, 0.0, 1.0]
],
  "dcmmeta_shape": [72, 72, 38, 122],
  "dcmmeta_slice_dim": 2,
  "dcmmeta_version": 0.6,
  "global": {
    "const": {
      "AccessionNumber": "REMOVED",
      "AcquisitionMatrix": [72, 0, 0, 72],
      "AngioFlag": "N",
      "BitsAllocated": 16,
      "BitsStored": 12,
      "BodyPartExamined": "BRAIN",
      "Columns": 504,
      "CountryOfResidence": "REMOVED",
      "DeidentificationMethod": "anonymize.default",
      "DeidentificationMethodCodeSequence": [
        {
          "CodeMeaning": "Basic Anonymization",
          "CodeValue": "113199",
          "CodingSchemeDesignator": "2012CDX"
        }
],
      "EchoNumbers": 1,
      "EchoTime": 30.0,
      "EchoTrainLength": 72,
      "FlipAngle": 80.0,
      "HighBit": 11,
      "ImageOrientationPatient": [0.99897061963844, -0.0087335400967, 0.0445132157519, 6.0399291e-08, 0.98129127758832, 0.19252903295107],
      "ImagePositionPatient": [-752.70491211145, -718.46978838338, -200.87239132865],
      "ImageType": [
        "ORIGINAL",
        "PRIMARY",
        "M",
        "ND",
        "NORM",
        "MOCO",
        "MOSAIC"
],
      "ImagedNucleus": "1H",
      "ImagingFrequency": 123.181853,
      "InPlanePhaseEncodingDirection": "COL",
      "MRAcquisitionType": "2D",
      "MagneticFieldStrength": 3.0,
      "Manufacturer": "SIEMENS",
      "ManufacturerModelName": "Skyra",
      "Modality": "MR",
      "NumberOfAverages": 1.0,
      "NumberOfPhaseEncodingSteps": 72,
      "PercentPhaseFieldOfView": 100.0,
      "PercentSampling": 100.0,
      "PerformedProcedureStepStartTime": "160656.580000",
      "PhotometricInterpretation": "MONOCHROME2",
      "PixelBandwidth": 1985.0,
      "PixelRepresentation": 0,
      "PixelSpacing": [3.0, 3.0],
      "PregnancyStatus": 0,
      "ProcedureCodeSequence": [
        {
          "CodeMeaning": "MRI BRAIN WITHOUT IV CONTRAST",
          "CodeValue": "IMG269",
          "CodingSchemeDesignator": "L"
        }
],
      "ProtocolName": "REST_1",
      "RepetitionTime": 2500.0,
      "RequestAttributesSequence": [
        {
          "RequestedProcedureID": "331159177",
          "ScheduledProcedureStepDescription": "MRI BRAIN WITHOUT IV CONTRAST",
          "ScheduledProcedureStepID": "E10595114",
          "ScheduledProtocolCodeSequence": [
            {
              "CodeMeaning": "MRI BRAIN WITHOUT IV CONTRAST",
              "CodeValue": "651061",
              "CodingSchemeDesignator": "L"
            }
]
        }
],
      "RequestedProcedureCodeSequence": [
        {
          "CodeMeaning": "MRI BRAIN WITHOUT IV CONTRAST",
          "CodeValue": "IMG269",
          "CodingSchemeDesignator": "L"
        }
],
      "Rows": 504,
      "SAR": 0.14725431360469,
      "SamplesPerPixel": 1,
      "ScanOptions": "FS",
      "ScanningSequence": "EP",
      "SequenceName": "*epfid2d1_72",
      "SequenceVariant": "SK",
      "SeriesDescription": "MoCoSeries",
      "SeriesNumber": 7,
      "SeriesTime": "162002.748000",
      "SliceLocation": -24.58340103457,
      "SliceThickness": 3.0,
      "SmallestImagePixelValue": 0,
      "SmokingStatus": "REMOVED",
      "SoftwareVersions": "syngo MR E11",
      "SpacingBetweenSlices": 2.9999999014272,
      "SpecificCharacterSet": "ISO_IR 100",
      "StudyID": "REMOVED",
      "StudyTime": "160656.417000",
      "TransmitCoilName": "Body",
      "VariableFlipAngleFlag": "N",
      "WindowCenterWidthExplanation": "Algo1",
      "dBdt": 0.0},
    "slices": {}
  },
  "time": {
    "samples": {
      "AcquisitionNumber": [1, 2, 3, 4, 5, 6, 7, 8, 9, 10, 11, 12, 13, 14, 15, 16, 17, 18, 19, 20, 21, 22, 23, 24, 25, 26, 27, 28, 29, 30, 31, 32, 33, 34, 35, 36, 37, 38, 39, 40, 41, 42, 43, 44, 45, 46, 47, 48, 49, 50, 51, 52, 53, 54, 55, 56, 57, 58, 59, 60, 61, 62, 63, 64, 65, 66, 67, 68, 69, 70, 71, 72, 73, 74, 75, 76, 77, 78, 79, 80, 81, 82, 83, 84, 85, 86, 87, 88, 89, 90, 91, 92, 93, 94, 95, 96, 97, 98, 99, 100, 101, 102, 103, 104, 105, 106, 107, 108, 109, 110, 111, 112, 113, 114, 115, 116, 117, 118, 119, 120, 121, 122],
      "AcquisitionTime": ["161902.030000", "161904.530000", "161907.030000", "161909.530000", "161912.030000", "161914.530000", "161917.030000", "161919.530000", "161922.030000", "161924.530000", "161927.030000", "161929.530000", "161932.030000", "161934.530000", "161937.030000", "161939.530000", "161942.030000", "161944.530000", "161947.030000", "161949.530000", "161952.030000", "161954.530000", "161957.030000", "161959.530000", "162002.030000", "162004.530000", "162007.030000", "162009.530000", "162012.030000", "162014.530000", "162017.030000", "162019.530000", "162022.030000", "162024.530000", "162027.030000", "162029.530000", "162032.030000", "162034.530000", "162037.030000", "162039.530000", "162042.030000", "162044.530000", "162047.030000", "162049.530000", "162052.030000", "162054.530000", "162057.030000", "162059.530000", "162102.030000", "162104.530000", "162107.030000", "162109.530000", "162112.030000", "162114.530000", "162117.030000", "162119.530000", "162122.030000", "162124.530000", "162127.030000", "162129.530000", "162132.030000", "162134.530000", "162137.030000", "162139.530000", "162142.030000", "162144.530000", "162147.030000", "162149.530000", "162152.030000", "162154.530000", "162157.030000", "162159.530000", "162202.030000", "162204.530000", "162207.030000", "162209.530000", "162212.030000", "162214.530000", "162217.030000", "162219.530000", "162222.030000", "162224.530000", "162227.030000", "162229.530000", "162232.030000", "162234.530000", "162237.030000", "162239.530000", "162242.030000", "162244.530000", "162247.030000", "162249.530000", "162252.030000", "162254.530000", "162257.030000", "162259.530000", "162302.030000", "162304.530000", "162307.030000", "162309.530000", "162312.030000", "162314.530000", "162317.030000", "162319.530000", "162322.030000", "162324.530000", "162327.030000", "162329.530000", "162332.030000", "162334.530000", "162337.030000", "162339.530000", "162342.030000", "162344.530000", "162347.030000", "162349.530000", "162352.030000", "162354.530000", "162357.030000", "162359.530000", "162402.030000", "162404.530000"],
      "ContentTime": ["162002.750000", "162002.753000", "162002.756000", "162002.759000", "162002.762000", "162002.764000", "162002.767000", "162002.770000", "162002.773000", "162002.775000", "162002.778000", "162002.781000", "162002.784000", "162002.787000", "162002.789000", "162002.792000", "162002.795000", "162002.798000", "162002.801000", "162002.803000", "162002.806000", "162002.809000", "162002.812000", "162002.815000", "162102.753000", "162102.756000", "162102.759000", "162102.762000", "162102.764000", "162102.767000", "162102.770000", "162102.773000", "162102.776000", "162102.778000", "162102.781000", "162102.784000", "162102.787000", "162102.789000", "162102.792000", "162102.795000", "162102.798000", "162102.800000", "162102.803000", "162102.806000", "162102.809000", "162102.812000", "162102.842000", "162102.846000", "162202.735000", "162202.738000", "162202.741000", "162202.744000", "162202.747000", "162202.749000", "162202.752000", "162202.755000", "162202.758000", "162202.761000", "162202.763000", "162202.766000", "162202.769000", "162202.772000", "162202.775000", "162202.777000", "162202.780000", "162202.783000", "162202.786000", "162202.789000", "162202.791000", "162202.794000", "162202.797000", "162202.800000", "162302.739000", "162302.742000", "162302.745000", "162302.748000", "162302.751000", "162302.754000", "162302.756000", "162302.759000", "162302.762000", "162302.765000", "162302.768000", "162302.771000", "162302.773000", "162302.776000", "162302.779000", "162302.782000", "162302.784000", "162302.787000", "162302.790000", "162302.793000", "162302.796000", "162302.798000", "162302.801000", "162302.804000", "162402.761000", "162402.764000", "162402.767000", "162402.769000", "162402.772000", "162402.775000", "162402.778000", "162402.781000", "162402.784000", "162402.786000", "162402.789000", "162402.792000", "162402.795000", "162402.797000", "162402.800000", "162402.803000", "162402.806000", "162402.808000", "162402.811000", "162402.980000", "162402.983000", "162402.986000", "162402.989000", "162402.992000", "162406.728000", "162406.732000"],
      "InstanceCreationTime": ["162002.750000", "162002.753000", "162002.756000", "162002.759000", "162002.762000", "162002.764000", "162002.767000", "162002.770000", "162002.773000", "162002.775000", "162002.778000", "162002.781000", "162002.784000", "162002.787000", "162002.789000", "162002.792000", "162002.795000", "162002.798000", "162002.801000", "162002.803000", "162002.806000", "162002.809000", "162002.812000", "162002.815000", "162102.753000", "162102.756000", "162102.759000", "162102.762000", "162102.764000", "162102.767000", "162102.770000", "162102.773000", "162102.776000", "162102.778000", "162102.781000", "162102.784000", "162102.787000", "162102.789000", "162102.792000", "162102.795000", "162102.798000", "162102.800000", "162102.803000", "162102.806000", "162102.809000", "162102.812000", "162102.842000", "162102.846000", "162202.735000", "162202.738000", "162202.741000", "162202.744000", "162202.747000", "162202.749000", "162202.752000", "162202.755000", "162202.758000", "162202.761000", "162202.763000", "162202.766000", "162202.769000", "162202.772000", "162202.775000", "162202.777000", "162202.780000", "162202.783000", "162202.786000", "162202.789000", "162202.791000", "162202.794000", "162202.797000", "162202.800000", "162302.739000", "162302.742000", "162302.745000", "162302.748000", "162302.751000", "162302.754000", "162302.756000", "162302.759000", "162302.762000", "162302.765000", "162302.768000", "162302.771000", "162302.773000", "162302.776000", "162302.779000", "162302.782000", "162302.784000", "162302.787000", "162302.790000", "162302.793000", "162302.796000", "162302.798000", "162302.801000", "162302.804000", "162402.761000", "162402.764000", "162402.767000", "162402.769000", "162402.772000", "162402.775000", "162402.778000", "162402.781000", "162402.784000", "162402.786000", "162402.789000", "162402.792000", "162402.795000", "162402.797000", "162402.800000", "162402.803000", "162402.806000", "162402.808000", "162402.811000", "162402.980000", "162402.983000", "162402.986000", "162402.989000", "162402.992000", "162406.728000", "162406.732000"],
      "InstanceNumber": [1, 2, 3, 4, 5, 6, 7, 8, 9, 10, 11, 12, 13, 14, 15, 16, 17, 18, 19, 20, 21, 22, 23, 24, 25, 26, 27, 28, 29, 30, 31, 32, 33, 34, 35, 36, 37, 38, 39, 40, 41, 42, 43, 44, 45, 46, 47, 48, 49, 50, 51, 52, 53, 54, 55, 56, 57, 58, 59, 60, 61, 62, 63, 64, 65, 66, 67, 68, 69, 70, 71, 72, 73, 74, 75, 76, 77, 78, 79, 80, 81, 82, 83, 84, 85, 86, 87, 88, 89, 90, 91, 92, 93, 94, 95, 96, 97, 98, 99, 100, 101, 102, 103, 104, 105, 106, 107, 108, 109, 110, 111, 112, 113, 114, 115, 116, 117, 118, 119, 120, 121, 122],
      "LargestImagePixelValue": [1472, 1391, 1355, 1395, 1359, 1364, 1366, 1376, 1377, 1336, 1437, 1374, 1376, 1383, 1360, 1361, 1375, 1369, 1367, 1385, 1379, 1370, 1355, 1356, 1391, 1379, 1355, 1473, 1386, 1371, 1357, 1375, 1353, 1449, 1376, 1367, 1350, 1353, 1413, 1402, 1396, 1357, 1368, 1357, 1364, 1358, 1422, 1378, 1376, 1379, 1399, 1359, 1366, 1383, 1376, 1369, 1368, 1432, 1417, 1449, 1380, 1390, 1385, 1378, 1425, 1448, 1372, 1375, 1360, 1365, 1448, 1384, 1393, 1383, 1364, 1365, 1352, 1387, 1393, 1388, 1381, 1373, 1403, 1393, 1373, 1376, 1388, 1394, 1369, 1359, 1387, 1385, 1392, 1382, 1399, 1372, 1439, 1393, 1385, 1375, 1373, 1368, 1474, 1389, 1389, 1383, 1367, 1359, 1378, 1416, 1593, 1355, 1385, 1347, 1391, 1379, 1417, 1364, 1406, 1378, 1363, 1436],
      "WindowCenter": [588.0, 584.0, 584.0, 583.0, 583.0, 583.0, 583.0, 583.0, 584.0, 583.0, 585.0, 585.0, 585.0, 584.0, 584.0, 584.0, 584.0, 583.0, 583.0, 583.0, 584.0, 584.0, 583.0, 584.0, 584.0, 583.0, 583.0, 584.0, 583.0, 584.0, 583.0, 583.0, 583.0, 584.0, 584.0, 584.0, 584.0, 584.0, 584.0, 584.0, 584.0, 584.0, 584.0, 584.0, 584.0, 583.0, 583.0, 583.0, 584.0, 584.0, 584.0, 584.0, 584.0, 584.0, 584.0, 583.0, 583.0, 584.0, 584.0, 584.0, 584.0, 585.0, 584.0, 584.0, 584.0, 584.0, 584.0, 583.0, 583.0, 584.0, 585.0, 585.0, 585.0, 585.0, 584.0, 584.0, 583.0, 583.0, 583.0, 583.0, 583.0, 584.0, 584.0, 583.0, 584.0, 583.0, 583.0, 583.0, 583.0, 583.0, 583.0, 583.0, 584.0, 584.0, 584.0, 584.0, 584.0, 583.0, 583.0, 583.0, 582.0, 583.0, 584.0, 583.0, 583.0, 583.0, 583.0, 583.0, 583.0, 583.0, 573.0, 580.0, 585.0, 584.0, 584.0, 583.0, 584.0, 583.0, 584.0, 585.0, 584.0, 584.0],
      "WindowWidth": [1240.0, 1231.0, 1229.0, 1228.0, 1228.0, 1228.0, 1228.0, 1228.0, 1229.0, 1229.0, 1231.0, 1231.0, 1231.0, 1230.0, 1230.0, 1229.0, 1229.0, 1227.0, 1228.0, 1229.0, 1229.0, 1229.0, 1228.0, 1229.0, 1229.0, 1228.0, 1228.0, 1230.0, 1228.0, 1229.0, 1228.0, 1229.0, 1228.0, 1230.0, 1229.0, 1229.0, 1229.0, 1230.0, 1231.0, 1230.0, 1229.0, 1229.0, 1230.0, 1230.0, 1230.0, 1228.0, 1229.0, 1229.0, 1230.0, 1229.0, 1229.0, 1229.0, 1229.0, 1229.0, 1229.0, 1228.0, 1228.0, 1229.0, 1229.0, 1230.0, 1229.0, 1231.0, 1230.0, 1231.0, 1230.0, 1230.0, 1229.0, 1229.0, 1228.0, 1229.0, 1232.0, 1231.0, 1232.0, 1231.0, 1230.0, 1229.0, 1227.0, 1228.0, 1229.0, 1228.0, 1229.0, 1229.0, 1229.0, 1228.0, 1229.0, 1228.0, 1228.0, 1229.0, 1229.0, 1228.0, 1228.0, 1229.0, 1229.0, 1229.0, 1230.0, 1229.0, 1229.0, 1228.0, 1227.0, 1227.0, 1227.0, 1228.0, 1230.0, 1228.0, 1228.0, 1229.0, 1228.0, 1227.0, 1228.0, 1227.0, 1206.0, 1220.0, 1232.0, 1229.0, 1230.0, 1229.0, 1229.0, 1227.0, 1229.0, 1232.0, 1231.0, 1230.0]
    },
    "slices": {}
  }
}