{
  "AcquisitionMatrixPE": 72,
  "AcquisitionNumber": 1,
  "AcquisitionTime": "16:37:44.790000",
  "BandwidthPerPixelPhaseEncode": 24.366,
  "BaseResolution": 72,
  "BodyPartExamined": "BRAIN",
  "CoilCombinationMethod": "Sum of Squares",
  "ConsistencyInfo": "N4_VE11C_LATEST_20160120",
  "ConversionSoftware": "dcm2niix",
  "ConversionSoftwareVersion": "v1.0.20220720",
  "DerivedVendorReportedEchoSpacing": 0.000570011,
  "DeviceSerialNumber": "45219",
  "DwellTime": 3.5e-06,
  "EchoTime": 0.03,
  "EchoTrainLength": 72,
  "EffectiveEchoSpacing": 0.000570011,
  "FlipAngle": 80,
  "HeudiconvVersion": "1.1.6",
  "ImageComments": "Reference volume for motion correction.",
  "ImageOrientationPatientDICOM": [0.998971, -0.00873354, 0.0445132, 6.03993e-08, 0.981291, 0.192529],
  "ImageOrientationText": "Tra>Cor(11.1)>Sag(2.6)",
  "ImageType": [
    "ORIGINAL",
    "PRIMARY",
    "M",
    "ND",
    "NORM",
    "MOCO",
    "MOSAIC"
],
  "ImagingFrequency": 123.182,
  "InPlanePhaseEncodingDirectionDICOM": "COL",
  "InstitutionAddress": "First Avenue 660,New York,NYC,US,10016",
  "InstitutionName": "NYU LANGONE CBI",
  "InstitutionalDepartmentName": "Department",
  "MRAcquisitionType": "2D",
  "MagneticFieldStrength": 3,
  "Manufacturer": "Siemens",
  "ManufacturersModelName": "Skyra",
  "MatrixCoilMode": "SENSE",
  "Modality": "MR",
  "NonlinearGradientCorrection": false,
  "PartialFourier": 1,
  "PatientPosition": "HFS",
  "PercentPhaseFOV": 100,
  "PercentSampling": 100,
  "PhaseEncodingDirection": "j-",
  "PhaseEncodingSteps": 72,
  "PhaseResolution": 1,
  "PixelBandwidth": 1985,
  "ProcedureStepDescription": "MRI BRAIN WITHOUT IV CONTRAST",
  "ProtocolName": "TASK_CD_MoCo",
  "PulseSequenceDetails": "%SiemensSeq%\\ep2d_bold",
  "ReceiveCoilActiveElements": "HE1-4",
  "ReceiveCoilName": "HeadNeck_20",
  "ReconMatrixPE": 72,
  "RepetitionTime": 2.5,
  "SAR": 0.147307,
  "ScanOptions": "FS",
  "ScanningSequence": "EP",
  "SequenceName": "*epfid2d1_72",
  "SequenceVariant": "SK",
  "SeriesDescription": "MoCoSeries",
  "SeriesNumber": 15,
  "ShimSetting": [-873, -7026, 5081, 330, -204, -171, 25, -130],
  "SliceThickness": 3,
  "SliceTiming": [1.24, 0, 1.305, 0.065, 1.37, 0.13, 1.435, 0.195, 1.5, 0.26, 1.565, 0.325, 1.63, 0.39, 1.6975, 0.4575, 1.7625, 0.5225, 1.8275, 0.5875, 1.8925, 0.6525, 1.9575, 0.7175, 2.0225, 0.7825, 2.0875, 0.8475, 2.1525, 0.9125, 2.2175, 0.9775, 2.285, 1.045, 2.35, 1.11, 2.415, 1.175],
  "SoftwareVersions": "syngo MR E11",
  "SpacingBetweenSlices": 3,
  "StationName": "MRC45219",
  "TaskName": "cd",
  "TotalReadoutTime": 0.0404708,
  "TxRefAmp": 435.26,
  "dcmmeta_affine": [
    [-2.9969117641448975, 1.811978762589206e-07, 0.1360856592655182, 105.37189483642578],
    [0.02620062045753002, 2.943873882293701, 0.5769925117492676, -120.76266479492188],
    [0.13353964686393738, -0.5775871276855469, 2.940843343734741, -6.2603302001953125],
    [0.0, 0.0, 0.0, 1.0]
],
  "dcmmeta_reorient_transform": [
    [0.0, -1.0, 0.0, 71.0],
    [1.0, 0.0, 0.0, 0.0],
    [0.0, 0.0, 1.0, 0.0],
    [0.0, 0.0, 0.0, 1.0]
],
  "dcmmeta_shape": [72, 72, 38, 132],
  "dcmmeta_slice_dim": 2,
  "dcmmeta_version": 0.6,
  "global": {
    "const": {
      "AccessionNumber": "REMOVED",
      "AcquisitionMatrix": [72, 0, 0, 72],
      "AngioFlag": "N",
      "BitsAllocated": 16,
      "BitsStored": 12,
      "BodyPartExamined": "BRAIN",
      "Columns": 504,
      "CountryOfResidence": "REMOVED",
      "DeidentificationMethod": "anonymize.default",
      "DeidentificationMethodCodeSequence": [
        {
          "CodeMeaning": "Basic Anonymization",
          "CodeValue": "113199",
          "CodingSchemeDesignator": "2012CDX"
        }
],
      "EchoNumbers": 1,
      "EchoTime": 30.0,
      "EchoTrainLength": 72,
      "FlipAngle": 80.0,
      "HighBit": 11,
      "ImageOrientationPatient": [0.99897061963844, -0.0087335400967, 0.0445132157519, 6.0399291e-08, 0.98129127758832, 0.19252903295107],
      "ImagePositionPatient": [-752.70491211145, -718.46978838338, -200.87239132865],
      "ImageType": [
        "ORIGINAL",
        "PRIMARY",
        "M",
        "ND",
        "NORM",
        "MOCO",
        "MOSAIC"
],
      "ImagedNucleus": "1H",
      "ImagingFrequency": 123.181936,
      "InPlanePhaseEncodingDirection": "COL",
      "MRAcquisitionType": "2D",
      "MagneticFieldStrength": 3.0,
      "Manufacturer": "SIEMENS",
      "ManufacturerModelName": "Skyra",
      "Modality": "MR",
      "NumberOfAverages": 1.0,
      "NumberOfPhaseEncodingSteps": 72,
      "PercentPhaseFieldOfView": 100.0,
      "PercentSampling": 100.0,
      "PerformedProcedureStepStartTime": "160656.580000",
      "PhotometricInterpretation": "MONOCHROME2",
      "PixelBandwidth": 1985.0,
      "PixelRepresentation": 0,
      "PixelSpacing": [3.0, 3.0],
      "PregnancyStatus": 0,
      "ProcedureCodeSequence": [
        {
          "CodeMeaning": "MRI BRAIN WITHOUT IV CONTRAST",
          "CodeValue": "IMG269",
          "CodingSchemeDesignator": "L"
        }
],
      "ProtocolName": "TASK_CD",
      "RepetitionTime": 2500.0,
      "RequestAttributesSequence": [
        {
          "RequestedProcedureID": "331159177",
          "ScheduledProcedureStepDescription": "MRI BRAIN WITHOUT IV CONTRAST",
          "ScheduledProcedureStepID": "E10595114",
          "ScheduledProtocolCodeSequence": [
            {
              "CodeMeaning": "MRI BRAIN WITHOUT IV CONTRAST",
              "CodeValue": "651061",
              "CodingSchemeDesignator": "L"
            }
]
        }
],
      "RequestedProcedureCodeSequence": [
        {
          "CodeMeaning": "MRI BRAIN WITHOUT IV CONTRAST",
          "CodeValue": "IMG269",
          "CodingSchemeDesignator": "L"
        }
],
      "Rows": 504,
      "SAR": 0.1473072566072,
      "SamplesPerPixel": 1,
      "ScanOptions": "FS",
      "ScanningSequence": "EP",
      "SequenceName": "*epfid2d1_72",
      "SequenceVariant": "SK",
      "SeriesDescription": "MoCoSeries",
      "SeriesNumber": 15,
      "SeriesTime": "163844.991000",
      "SliceLocation": -24.58340103457,
      "SliceThickness": 3.0,
      "SmallestImagePixelValue": 0,
      "SmokingStatus": "REMOVED",
      "SoftwareVersions": "syngo MR E11",
      "SpacingBetweenSlices": 2.9999999014272,
      "SpecificCharacterSet": "ISO_IR 100",
      "StudyID": "REMOVED",
      "StudyTime": "160656.417000",
      "TransmitCoilName": "Body",
      "VariableFlipAngleFlag": "N",
      "WindowCenterWidthExplanation": "Algo1",
      "dBdt": 0.0},
    "slices": {}
  },
  "time": {
    "samples": {
      "AcquisitionNumber": [1, 2, 3, 4, 5, 6, 7, 8, 9, 10, 11, 12, 13, 14, 15, 16, 17, 18, 19, 20, 21, 22, 23, 24, 25, 26, 27, 28, 29, 30, 31, 32, 33, 34, 35, 36, 37, 38, 39, 40, 41, 42, 43, 44, 45, 46, 47, 48, 49, 50, 51, 52, 53, 54, 55, 56, 57, 58, 59, 60, 61, 62, 63, 64, 65, 66, 67, 68, 69, 70, 71, 72, 73, 74, 75, 76, 77, 78, 79, 80, 81, 82, 83, 84, 85, 86, 87, 88, 89, 90, 91, 92, 93, 94, 95, 96, 97, 98, 99, 100, 101, 102, 103, 104, 105, 106, 107, 108, 109, 110, 111, 112, 113, 114, 115, 116, 117, 118, 119, 120, 121, 122, 123, 124, 125, 126, 127, 128, 129, 130, 131, 132],
      "AcquisitionTime": ["163744.790000", "163747.290000", "163749.790000", "163752.290000", "163754.790000", "163757.290000", "163759.790000", "163802.290000", "163804.790000", "163807.290000", "163809.790000", "163812.290000", "163814.790000", "163817.290000", "163819.790000", "163822.290000", "163824.790000", "163827.290000", "163829.790000", "163832.290000", "163834.790000", "163837.290000", "163839.790000", "163842.290000", "163844.790000", "163847.290000", "163849.790000", "163852.290000", "163854.790000", "163857.290000", "163859.790000", "163902.290000", "163904.790000", "163907.290000", "163909.790000", "163912.290000", "163914.790000", "163917.290000", "163919.790000", "163922.290000", "163924.790000", "163927.290000", "163929.790000", "163932.290000", "163934.790000", "163937.290000", "163939.790000", "163942.290000", "163944.790000", "163947.290000", "163949.790000", "163952.290000", "163954.790000", "163957.290000", "163959.790000", "164002.290000", "164004.790000", "164007.290000", "164009.790000", "164012.290000", "164014.790000", "164017.290000", "164019.790000", "164022.290000", "164024.790000", "164027.290000", "164029.790000", "164032.290000", "164034.790000", "164037.290000", "164039.790000", "164042.290000", "164044.790000", "164047.290000", "164049.790000", "164052.290000", "164054.790000", "164057.290000", "164059.790000", "164102.290000", "164104.790000", "164107.290000", "164109.790000", "164112.290000", "164114.790000", "164117.290000", "164119.790000", "164122.290000", "164124.790000", "164127.290000", "164129.790000", "164132.290000", "164134.790000", "164137.290000", "164139.790000", "164142.290000", "164144.790000", "164147.290000", "164149.790000", "164152.290000", "164154.790000", "164157.290000", "164159.790000", "164202.290000", "164204.790000", "164207.290000", "164209.790000", "164212.290000", "164214.790000", "164217.290000", "164219.790000", "164222.290000", "164224.790000", "164227.290000", "164229.790000", "164232.290000", "164234.790000", "164237.290000", "164239.790000", "164242.290000", "164244.790000", "164247.290000", "164249.790000", "164252.290000", "164254.790000", "164257.290000", "164259.790000", "164302.290000", "164304.790000", "164307.290000", "164309.790000", "164312.290000"],
      "ContentTime": ["163844.994000", "163844.997000", "163845.001000", "163845.003000", "163845.006000", "163845.009000", "163845.012000", "163845.015000", "163845.017000", "163845.020000", "163845.023000", "163845.026000", "163845.029000", "163845.032000", "163845.034000", "163845.037000", "163845.040000", "163845.043000", "163845.045000", "163845.048000", "163845.051000", "163845.054000", "163845.057000", "163845.060000", "163944.979000", "163944.982000", "163944.985000", "163944.988000", "163944.990000", "163944.993000", "163944.996000", "163945.000000", "163945.003000", "163945.005000", "163945.008000", "163945.019000", "163945.022000", "163945.024000", "163945.027000", "163945.030000", "163945.033000", "163945.036000", "163945.038000", "163945.041000", "163945.044000", "163945.047000", "163945.050000", "163945.053000", "164044.979000", "164044.982000", "164044.985000", "164044.988000", "164044.990000", "164044.993000", "164044.996000", "164045.000000", "164045.003000", "164045.006000", "164045.008000", "164045.011000", "164045.014000", "164045.017000", "164045.020000", "164045.022000", "164045.025000", "164045.028000", "164045.031000", "164045.033000", "164045.036000", "164045.039000", "164045.042000", "164045.045000", "164144.988000", "164144.991000", "164144.994000", "164144.997000", "164145.001000", "164145.004000", "164145.007000", "164145.009000", "164145.012000", "164145.015000", "164145.018000", "164145.021000", "164145.023000", "164145.026000", "164145.029000", "164145.032000", "164145.034000", "164145.037000", "164145.040000", "164145.043000", "164145.045000", "164145.048000", "164145.051000", "164145.054000", "164245.001000", "164245.004000", "164245.018000", "164245.021000", "164245.024000", "164245.027000", "164245.030000", "164245.032000", "164245.035000", "164245.038000", "164245.041000", "164245.044000", "164245.046000", "164245.049000", "164245.052000", "164245.055000", "164245.058000", "164245.060000", "164245.063000", "164245.066000", "164245.069000", "164245.072000", "164245.075000", "164245.077000", "164313.748000", "164313.751000", "164313.754000", "164313.757000", "164313.760000", "164313.763000", "164313.766000", "164313.769000", "164313.772000", "164313.775000", "164313.778000", "164313.780000"],
      "InstanceCreationTime": ["163844.994000", "163844.997000", "163845.001000", "163845.003000", "163845.006000", "163845.009000", "163845.012000", "163845.015000", "163845.017000", "163845.020000", "163845.023000", "163845.026000", "163845.029000", "163845.032000", "163845.034000", "163845.037000", "163845.040000", "163845.043000", "163845.045000", "163845.048000", "163845.051000", "163845.054000", "163845.057000", "163845.060000", "163944.979000", "163944.982000", "163944.985000", "163944.988000", "163944.990000", "163944.993000", "163944.996000", "163945.000000", "163945.003000", "163945.005000", "163945.008000", "163945.019000", "163945.022000", "163945.024000", "163945.027000", "163945.030000", "163945.033000", "163945.036000", "163945.038000", "163945.041000", "163945.044000", "163945.047000", "163945.050000", "163945.053000", "164044.979000", "164044.982000", "164044.985000", "164044.988000", "164044.990000", "164044.993000", "164044.996000", "164045.000000", "164045.003000", "164045.006000", "164045.008000", "164045.011000", "164045.014000", "164045.017000", "164045.020000", "164045.022000", "164045.025000", "164045.028000", "164045.031000", "164045.033000", "164045.036000", "164045.039000", "164045.042000", "164045.045000", "164144.988000", "164144.991000", "164144.994000", "164144.997000", "164145.001000", "164145.004000", "164145.007000", "164145.009000", "164145.012000", "164145.015000", "164145.018000", "164145.021000", "164145.023000", "164145.026000", "164145.029000", "164145.032000", "164145.034000", "164145.037000", "164145.040000", "164145.043000", "164145.045000", "164145.048000", "164145.051000", "164145.054000", "164245.001000", "164245.004000", "164245.018000", "164245.021000", "164245.024000", "164245.027000", "164245.030000", "164245.032000", "164245.035000", "164245.038000", "164245.041000", "164245.044000", "164245.046000", "164245.049000", "164245.052000", "164245.055000", "164245.058000", "164245.060000", "164245.063000", "164245.066000", "164245.069000", "164245.072000", "164245.075000", "164245.077000", "164313.748000", "164313.751000", "164313.754000", "164313.757000", "164313.760000", "164313.763000", "164313.766000", "164313.769000", "164313.772000", "164313.775000", "164313.778000", "164313.780000"],
      "InstanceNumber": [1, 2, 3, 4, 5, 6, 7, 8, 9, 10, 11, 12, 13, 14, 15, 16, 17, 18, 19, 20, 21, 22, 23, 24, 25, 26, 27, 28, 29, 30, 31, 32, 33, 34, 35, 36, 37, 38, 39, 40, 41, 42, 43, 44, 45, 46, 47, 48, 49, 50, 51, 52, 53, 54, 55, 56, 57, 58, 59, 60, 61, 62, 63, 64, 65, 66, 67, 68, 69, 70, 71, 72, 73, 74, 75, 76, 77, 78, 79, 80, 81, 82, 83, 84, 85, 86, 87, 88, 89, 90, 91, 92, 93, 94, 95, 96, 97, 98, 99, 100, 101, 102, 103, 104, 105, 106, 107, 108, 109, 110, 111, 112, 113, 114, 115, 116, 117, 118, 119, 120, 121, 122, 123, 124, 125, 126, 127, 128, 129, 130, 131, 132],
      "LargestImagePixelValue": [1435, 1414, 1404, 1398, 1400, 1395, 1390, 1418, 1409, 1374, 1393, 1404, 1398, 1418, 1393, 1395, 1394, 1406, 1397, 1402, 1394, 1407, 1397, 1390, 1410, 1399, 1384, 1397, 1420, 1394, 1407, 1410, 1397, 1402, 1423, 1414, 1409, 1387, 1391, 1398, 1391, 1424, 1397, 1403, 1427, 1392, 1393, 1389, 1408, 1402, 1408, 1416, 1406, 1387, 1403, 1400, 1403, 1399, 1399, 1401, 1409, 1396, 1395, 1402, 1401, 1411, 1401, 1397, 1415, 1419, 1404, 1393, 1378, 1406, 1399, 1417, 1405, 1409, 1395, 1383, 1391, 1397, 1408, 1407, 1395, 1402, 1406, 1402, 1401, 1390, 1392, 1402, 1400, 1399, 1400, 1394, 1389, 1399, 1422, 1397, 1401, 1396, 1403, 1411, 1453, 1404, 1394, 1396, 1385, 1386, 1416, 1396, 1417, 1401, 1413, 1406, 1414, 1394, 1393, 1391, 1396, 1411, 1426, 1406, 1403, 1410, 1432, 1398, 1414, 1413, 1400, 1407],
      "WindowCenter": [588.0, 585.0, 584.0, 584.0, 584.0, 584.0, 585.0, 585.0, 586.0, 584.0, 584.0, 584.0, 585.0, 584.0, 584.0, 584.0, 584.0, 583.0, 583.0, 584.0, 584.0, 584.0, 584.0, 584.0, 584.0, 584.0, 583.0, 583.0, 584.0, 583.0, 584.0, 584.0, 584.0, 585.0, 585.0, 584.0, 583.0, 582.0, 582.0, 582.0, 583.0, 585.0, 586.0, 586.0, 586.0, 585.0, 584.0, 584.0, 584.0, 585.0, 585.0, 585.0, 586.0, 585.0, 584.0, 584.0, 584.0, 583.0, 584.0, 585.0, 584.0, 584.0, 584.0, 584.0, 584.0, 584.0, 584.0, 584.0, 584.0, 585.0, 584.0, 584.0, 583.0, 583.0, 584.0, 585.0, 585.0, 585.0, 585.0, 583.0, 583.0, 584.0, 583.0, 584.0, 584.0, 584.0, 584.0, 585.0, 584.0, 584.0, 584.0, 585.0, 584.0, 584.0, 584.0, 584.0, 584.0, 584.0, 584.0, 584.0, 584.0, 585.0, 585.0, 585.0, 585.0, 584.0, 583.0, 584.0, 583.0, 584.0, 584.0, 584.0, 585.0, 584.0, 584.0, 584.0, 584.0, 584.0, 584.0, 583.0, 583.0, 584.0, 584.0, 584.0, 584.0, 584.0, 585.0, 584.0, 585.0, 584.0, 584.0, 584.0],
      "WindowWidth": [1240.0, 1232.0, 1229.0, 1229.0, 1230.0, 1230.0, 1231.0, 1232.0, 1233.0, 1231.0, 1230.0, 1231.0, 1231.0, 1230.0, 1229.0, 1230.0, 1230.0, 1228.0, 1228.0, 1229.0, 1229.0, 1231.0, 1231.0, 1230.0, 1230.0, 1229.0, 1228.0, 1228.0, 1229.0, 1228.0, 1229.0, 1230.0, 1229.0, 1231.0, 1233.0, 1230.0, 1227.0, 1226.0, 1224.0, 1224.0, 1228.0, 1231.0, 1233.0, 1234.0, 1234.0, 1232.0, 1230.0, 1229.0, 1231.0, 1231.0, 1231.0, 1233.0, 1233.0, 1231.0, 1230.0, 1230.0, 1229.0, 1228.0, 1230.0, 1231.0, 1230.0, 1229.0, 1229.0, 1229.0, 1229.0, 1229.0, 1229.0, 1229.0, 1230.0, 1231.0, 1230.0, 1229.0, 1228.0, 1227.0, 1229.0, 1231.0, 1232.0, 1232.0, 1231.0, 1228.0, 1227.0, 1229.0, 1228.0, 1229.0, 1229.0, 1230.0, 1230.0, 1231.0, 1231.0, 1230.0, 1230.0, 1231.0, 1230.0, 1230.0, 1230.0, 1229.0, 1229.0, 1230.0, 1229.0, 1229.0, 1229.0, 1231.0, 1231.0, 1231.0, 1231.0, 1229.0, 1227.0, 1229.0, 1228.0, 1229.0, 1229.0, 1230.0, 1231.0, 1230.0, 1230.0, 1230.0, 1230.0, 1230.0, 1229.0, 1228.0, 1228.0, 1229.0, 1230.0, 1230.0, 1230.0, 1230.0, 1231.0, 1230.0, 1231.0, 1230.0, 1230.0, 1229.0]
    },
    "slices": {}
  }
}