{
  "AcquisitionMatrixPE": 72,
  "AcquisitionNumber": 1,
  "AcquisitionTime": "16:19:2.030000",
  "BandwidthPerPixelPhaseEncode": 24.366,
  "BaseResolution": 72,
  "BodyPartExamined": "BRAIN",
  "CoilCombinationMethod": "Sum of Squares",
  "ConsistencyInfo": "N4_VE11C_LATEST_20160120",
  "ConversionSoftware": "dcm2niix",
  "ConversionSoftwareVersion": "v1.0.20220720",
  "DerivedVendorReportedEchoSpacing": 0.000570011,
  "DeviceSerialNumber": "45219",
  "DwellTime": 3.5e-06,
  "EchoTime": 0.03,
  "EchoTrainLength": 72,
  "EffectiveEchoSpacing": 0.000570011,
  "FlipAngle": 80,
  "HeudiconvVersion": "1.1.6",
  "ImageOrientationPatientDICOM": [0.998971, -0.00873354, 0.0445132, 6.03993e-08, 0.981291, 0.192529],
  "ImageOrientationText": "Tra>Cor(11.1)>Sag(2.6)",
  "ImageType": [
    "ORIGINAL",
    "PRIMARY",
    "M",
    "ND",
    "NORM",
    "MOSAIC"
],
  "ImagingFrequency": 123.182,
  "InPlanePhaseEncodingDirectionDICOM": "COL",
  "InstitutionAddress": "First Avenue 660,New York,NYC,US,10016",
  "InstitutionName": "NYU LANGONE CBI",
  "InstitutionalDepartmentName": "Department",
  "MRAcquisitionType": "2D",
  "MagneticFieldStrength": 3,
  "Manufacturer": "Siemens",
  "ManufacturersModelName": "Skyra",
  "MatrixCoilMode": "SENSE",
  "Modality": "MR",
  "NonlinearGradientCorrection": false,
  "PartialFourier": 1,
  "PatientPosition": "HFS",
  "PercentPhaseFOV": 100,
  "PercentSampling": 100,
  "PhaseEncodingDirection": "j-",
  "PhaseEncodingSteps": 72,
  "PhaseResolution": 1,
  "PixelBandwidth": 1985,
  "ProcedureStepDescription": "MRI BRAIN WITHOUT IV CONTRAST",
  "ProtocolName": "REST_1",
  "PulseSequenceDetails": "%SiemensSeq%\\ep2d_bold",
  "ReceiveCoilActiveElements": "HE1-4",
  "ReceiveCoilName": "HeadNeck_20",
  "ReconMatrixPE": 72,
  "RepetitionTime": 2.5,
  "SAR": 0.147254,
  "ScanOptions": "FS",
  "ScanningSequence": "EP",
  "SequenceName": "*epfid2d1_72",
  "SequenceVariant": "SK",
  "SeriesDescription": "REST_1",
  "SeriesNumber": 6,
  "ShimSetting": [-873, -7026, 5081, 330, -204, -171, 25, -130],
  "SliceThickness": 3,
  "SliceTiming": [1.24, 0, 1.305, 0.065, 1.37, 0.13, 1.435, 0.195, 1.5, 0.26, 1.565, 0.325, 1.63, 0.39, 1.695, 0.455, 1.76, 0.52, 1.8275, 0.5875, 1.8925, 0.6525, 1.9575, 0.7175, 2.0225, 0.7825, 2.0875, 0.8475, 2.1525, 0.9125, 2.2175, 0.9775, 2.2825, 1.0425, 2.3475, 1.1075, 2.4125, 1.175],
  "SoftwareVersions": "syngo MR E11",
  "SpacingBetweenSlices": 3,
  "StationName": "MRC45219",
  "TaskName": "rest",
  "TotalReadoutTime": 0.0404708,
  "TxRefAmp": 435.26,
  "dcmmeta_affine": [
    [-2.9969117641448975, 1.811978762589206e-07, 0.1360856592655182, 105.37189483642578],
    [0.02620062045753002, 2.943873882293701, 0.5769925117492676, -120.76266479492188],
    [0.13353964686393738, -0.5775871276855469, 2.940843343734741, -6.2603302001953125],
    [0.0, 0.0, 0.0, 1.0]
],
  "dcmmeta_reorient_transform": [
    [0.0, -1.0, 0.0, 71.0],
    [1.0, 0.0, 0.0, 0.0],
    [0.0, 0.0, 1.0, 0.0],
    [0.0, 0.0, 0.0, 1.0]
],
  "dcmmeta_shape": [72, 72, 38, 122],
  "dcmmeta_slice_dim": 2,
  "dcmmeta_version": 0.6,
  "global": {
    "const": {
      "AccessionNumber": "REMOVED",
      "AcquisitionMatrix": [72, 0, 0, 72],
      "AngioFlag": "N",
      "BitsAllocated": 16,
      "BitsStored": 12,
      "BodyPartExamined": "BRAIN",
      "Columns": 504,
      "CountryOfResidence": "REMOVED",
      "DeidentificationMethod": "anonymize.default",
      "DeidentificationMethodCodeSequence": [
        {
          "CodeMeaning": "Basic Anonymization",
          "CodeValue": "113199",
          "CodingSchemeDesignator": "2012CDX"
        }
],
      "EchoNumbers": 1,
      "EchoTime": 30.0,
      "EchoTrainLength": 72,
      "FlipAngle": 80.0,
      "HighBit": 11,
      "ImageOrientationPatient": [0.99897061963844, -0.0087335400967, 0.0445132157519, 6.0399291e-08, 0.98129127758832, 0.19252903295107],
      "ImagePositionPatient": [-752.70491211145, -718.46978838338, -200.87239132865],
      "ImageType": [
        "ORIGINAL",
        "PRIMARY",
        "M",
        "ND",
        "NORM",
        "MOSAIC"
],
      "ImagedNucleus": "1H",
      "ImagingFrequency": 123.181853,
      "InPlanePhaseEncodingDirection": "COL",
      "MRAcquisitionType": "2D",
      "MagneticFieldStrength": 3.0,
      "Manufacturer": "SIEMENS",
      "ManufacturerModelName": "Skyra",
      "Modality": "MR",
      "NumberOfAverages": 1.0,
      "NumberOfPhaseEncodingSteps": 72,
      "PercentPhaseFieldOfView": 100.0,
      "PercentSampling": 100.0,
      "PerformedProcedureStepStartTime": "160656.580000",
      "PhotometricInterpretation": "MONOCHROME2",
      "PixelBandwidth": 1985.0,
      "PixelRepresentation": 0,
      "PixelSpacing": [3.0, 3.0],
      "PregnancyStatus": 0,
      "ProcedureCodeSequence": [
        {
          "CodeMeaning": "MRI BRAIN WITHOUT IV CONTRAST",
          "CodeValue": "IMG269",
          "CodingSchemeDesignator": "L"
        }
],
      "ProtocolName": "REST_1",
      "RepetitionTime": 2500.0,
      "RequestAttributesSequence": [
        {
          "RequestedProcedureID": "331159177",
          "ScheduledProcedureStepDescription": "MRI BRAIN WITHOUT IV CONTRAST",
          "ScheduledProcedureStepID": "E10595114",
          "ScheduledProtocolCodeSequence": [
            {
              "CodeMeaning": "MRI BRAIN WITHOUT IV CONTRAST",
              "CodeValue": "651061",
              "CodingSchemeDesignator": "L"
            }
]
        }
],
      "RequestedProcedureCodeSequence": [
        {
          "CodeMeaning": "MRI BRAIN WITHOUT IV CONTRAST",
          "CodeValue": "IMG269",
          "CodingSchemeDesignator": "L"
        }
],
      "Rows": 504,
      "SAR": 0.14725431360469,
      "SamplesPerPixel": 1,
      "ScanOptions": "FS",
      "ScanningSequence": "EP",
      "SequenceName": "*epfid2d1_72",
      "SequenceVariant": "SK",
      "SeriesDescription": "REST_1",
      "SeriesNumber": 6,
      "SeriesTime": "162002.643000",
      "SliceLocation": -24.58340103457,
      "SliceThickness": 3.0,
      "SmallestImagePixelValue": 0,
      "SmokingStatus": "REMOVED",
      "SoftwareVersions": "syngo MR E11",
      "SpacingBetweenSlices": 2.9999999014272,
      "SpecificCharacterSet": "ISO_IR 100",
      "StudyID": "REMOVED",
      "StudyTime": "160656.417000",
      "TransmitCoilName": "Body",
      "VariableFlipAngleFlag": "N",
      "WindowCenterWidthExplanation": "Algo1",
      "dBdt": 0.0},
    "slices": {}
  },
  "time": {
    "samples": {
      "AcquisitionNumber": [1, 2, 3, 4, 5, 6, 7, 8, 9, 10, 11, 12, 13, 14, 15, 16, 17, 18, 19, 20, 21, 22, 23, 24, 25, 26, 27, 28, 29, 30, 31, 32, 33, 34, 35, 36, 37, 38, 39, 40, 41, 42, 43, 44, 45, 46, 47, 48, 49, 50, 51, 52, 53, 54, 55, 56, 57, 58, 59, 60, 61, 62, 63, 64, 65, 66, 67, 68, 69, 70, 71, 72, 73, 74, 75, 76, 77, 78, 79, 80, 81, 82, 83, 84, 85, 86, 87, 88, 89, 90, 91, 92, 93, 94, 95, 96, 97, 98, 99, 100, 101, 102, 103, 104, 105, 106, 107, 108, 109, 110, 111, 112, 113, 114, 115, 116, 117, 118, 119, 120, 121, 122],
      "AcquisitionTime": ["161902.030000", "161904.530000", "161907.030000", "161909.530000", "161912.030000", "161914.530000", "161917.030000", "161919.530000", "161922.030000", "161924.530000", "161927.030000", "161929.530000", "161932.030000", "161934.530000", "161937.030000", "161939.530000", "161942.030000", "161944.530000", "161947.030000", "161949.530000", "161952.030000", "161954.530000", "161957.030000", "161959.530000", "162002.030000", "162004.530000", "162007.030000", "162009.530000", "162012.030000", "162014.530000", "162017.030000", "162019.530000", "162022.030000", "162024.530000", "162027.030000", "162029.530000", "162032.030000", "162034.530000", "162037.030000", "162039.530000", "162042.030000", "162044.530000", "162047.030000", "162049.530000", "162052.030000", "162054.530000", "162057.030000", "162059.530000", "162102.030000", "162104.530000", "162107.030000", "162109.530000", "162112.030000", "162114.530000", "162117.030000", "162119.530000", "162122.030000", "162124.530000", "162127.030000", "162129.530000", "162132.030000", "162134.530000", "162137.030000", "162139.530000", "162142.030000", "162144.530000", "162147.030000", "162149.530000", "162152.030000", "162154.530000", "162157.030000", "162159.530000", "162202.030000", "162204.530000", "162207.030000", "162209.530000", "162212.030000", "162214.530000", "162217.030000", "162219.530000", "162222.030000", "162224.530000", "162227.030000", "162229.530000", "162232.030000", "162234.530000", "162237.030000", "162239.530000", "162242.030000", "162244.530000", "162247.030000", "162249.530000", "162252.030000", "162254.530000", "162257.030000", "162259.530000", "162302.030000", "162304.530000", "162307.030000", "162309.530000", "162312.030000", "162314.530000", "162317.030000", "162319.530000", "162322.030000", "162324.530000", "162327.030000", "162329.530000", "162332.030000", "162334.530000", "162337.030000", "162339.530000", "162342.030000", "162344.530000", "162347.030000", "162349.530000", "162352.030000", "162354.530000", "162357.030000", "162359.530000", "162402.030000", "162404.530000"],
      "ContentTime": ["162002.646000", "162002.650000", "162002.652000", "162002.655000", "162002.658000", "162002.661000", "162002.663000", "162002.666000", "162002.681000", "162002.684000", "162002.687000", "162002.689000", "162002.693000", "162002.696000", "162002.698000", "162002.701000", "162002.704000", "162002.707000", "162002.709000", "162002.712000", "162002.715000", "162002.718000", "162002.720000", "162002.723000", "162102.641000", "162102.644000", "162102.647000", "162102.649000", "162102.652000", "162102.655000", "162102.658000", "162102.660000", "162102.663000", "162102.666000", "162102.668000", "162102.671000", "162102.674000", "162102.676000", "162102.679000", "162102.682000", "162102.685000", "162102.687000", "162102.690000", "162102.693000", "162102.706000", "162102.709000", "162102.711000", "162102.714000", "162202.641000", "162202.644000", "162202.646000", "162202.649000", "162202.652000", "162202.655000", "162202.657000", "162202.660000", "162202.663000", "162202.666000", "162202.668000", "162202.671000", "162202.674000", "162202.676000", "162202.679000", "162202.682000", "162202.685000", "162202.687000", "162202.690000", "162202.693000", "162202.696000", "162202.699000", "162202.701000", "162202.704000", "162302.641000", "162302.644000", "162302.646000", "162302.649000", "162302.652000", "162302.655000", "162302.657000", "162302.660000", "162302.663000", "162302.666000", "162302.668000", "162302.671000", "162302.674000", "162302.677000", "162302.679000", "162302.682000", "162302.685000", "162302.687000", "162302.690000", "162302.694000", "162302.696000", "162302.699000", "162302.702000", "162302.704000", "162402.641000", "162402.644000", "162402.646000", "162402.649000", "162402.652000", "162402.655000", "162402.657000", "162402.660000", "162402.683000", "162402.685000", "162402.688000", "162402.691000", "162402.694000", "162402.697000", "162402.700000", "162402.702000", "162402.705000", "162402.708000", "162402.711000", "162402.713000", "162402.716000", "162402.719000", "162402.721000", "162402.724000", "162406.702000", "162406.705000"],
      "InstanceCreationTime": ["162002.646000", "162002.650000", "162002.652000", "162002.655000", "162002.658000", "162002.661000", "162002.663000", "162002.666000", "162002.681000", "162002.684000", "162002.687000", "162002.689000", "162002.693000", "162002.696000", "162002.698000", "162002.701000", "162002.704000", "162002.707000", "162002.709000", "162002.712000", "162002.715000", "162002.718000", "162002.720000", "162002.723000", "162102.641000", "162102.644000", "162102.647000", "162102.649000", "162102.652000", "162102.655000", "162102.658000", "162102.660000", "162102.663000", "162102.666000", "162102.668000", "162102.671000", "162102.674000", "162102.676000", "162102.679000", "162102.682000", "162102.685000", "162102.687000", "162102.690000", "162102.693000", "162102.706000", "162102.709000", "162102.711000", "162102.714000", "162202.641000", "162202.644000", "162202.646000", "162202.649000", "162202.652000", "162202.655000", "162202.657000", "162202.660000", "162202.663000", "162202.666000", "162202.668000", "162202.671000", "162202.674000", "162202.676000", "162202.679000", "162202.682000", "162202.685000", "162202.687000", "162202.690000", "162202.693000", "162202.696000", "162202.699000", "162202.701000", "162202.704000", "162302.641000", "162302.644000", "162302.646000", "162302.649000", "162302.652000", "162302.655000", "162302.657000", "162302.660000", "162302.663000", "162302.666000", "162302.668000", "162302.671000", "162302.674000", "162302.677000", "162302.679000", "162302.682000", "162302.685000", "162302.687000", "162302.690000", "162302.694000", "162302.696000", "162302.699000", "162302.702000", "162302.704000", "162402.641000", "162402.644000", "162402.646000", "162402.649000", "162402.652000", "162402.655000", "162402.657000", "162402.660000", "162402.683000", "162402.685000", "162402.688000", "162402.691000", "162402.694000", "162402.697000", "162402.700000", "162402.702000", "162402.705000", "162402.708000", "162402.711000", "162402.713000", "162402.716000", "162402.719000", "162402.721000", "162402.724000", "162406.702000", "162406.705000"],
      "InstanceNumber": [1, 2, 3, 4, 5, 6, 7, 8, 9, 10, 11, 12, 13, 14, 15, 16, 17, 18, 19, 20, 21, 22, 23, 24, 25, 26, 27, 28, 29, 30, 31, 32, 33, 34, 35, 36, 37, 38, 39, 40, 41, 42, 43, 44, 45, 46, 47, 48, 49, 50, 51, 52, 53, 54, 55, 56, 57, 58, 59, 60, 61, 62, 63, 64, 65, 66, 67, 68, 69, 70, 71, 72, 73, 74, 75, 76, 77, 78, 79, 80, 81, 82, 83, 84, 85, 86, 87, 88, 89, 90, 91, 92, 93, 94, 95, 96, 97, 98, 99, 100, 101, 102, 103, 104, 105, 106, 107, 108, 109, 110, 111, 112, 113, 114, 115, 116, 117, 118, 119, 120, 121, 122],
      "LargestImagePixelValue": [1472, 1396, 1361, 1391, 1367, 1369, 1371, 1383, 1378, 1341, 1460, 1378, 1378, 1386, 1367, 1363, 1375, 1393, 1371, 1388, 1386, 1373, 1359, 1361, 1396, 1381, 1363, 1495, 1390, 1374, 1365, 1378, 1357, 1469, 1377, 1375, 1355, 1357, 1433, 1410, 1399, 1368, 1379, 1365, 1358, 1379, 1443, 1382, 1381, 1387, 1402, 1370, 1375, 1387, 1381, 1376, 1364, 1447, 1435, 1461, 1380, 1387, 1383, 1380, 1423, 1441, 1370, 1379, 1363, 1370, 1446, 1387, 1394, 1387, 1372, 1372, 1359, 1393, 1400, 1393, 1384, 1377, 1387, 1395, 1383, 1381, 1392, 1399, 1376, 1366, 1386, 1386, 1402, 1391, 1400, 1382, 1448, 1397, 1395, 1385, 1384, 1377, 1476, 1396, 1395, 1391, 1374, 1366, 1386, 1399, 1585, 1422, 1398, 1354, 1377, 1363, 1377, 1364, 1373, 1378, 1387, 1380],
      "WindowCenter": [588.0, 585.0, 584.0, 583.0, 583.0, 583.0, 583.0, 583.0, 583.0, 584.0, 585.0, 585.0, 585.0, 584.0, 584.0, 584.0, 584.0, 583.0, 583.0, 583.0, 584.0, 584.0, 583.0, 584.0, 584.0, 583.0, 583.0, 585.0, 583.0, 584.0, 584.0, 584.0, 584.0, 585.0, 584.0, 584.0, 584.0, 585.0, 585.0, 584.0, 584.0, 584.0, 584.0, 585.0, 584.0, 583.0, 584.0, 584.0, 584.0, 584.0, 584.0, 584.0, 584.0, 584.0, 584.0, 584.0, 583.0, 584.0, 584.0, 585.0, 584.0, 585.0, 584.0, 585.0, 584.0, 585.0, 584.0, 584.0, 584.0, 584.0, 585.0, 585.0, 585.0, 585.0, 585.0, 584.0, 583.0, 584.0, 584.0, 584.0, 584.0, 584.0, 584.0, 584.0, 584.0, 584.0, 584.0, 584.0, 584.0, 583.0, 584.0, 584.0, 584.0, 584.0, 584.0, 584.0, 584.0, 584.0, 583.0, 583.0, 583.0, 584.0, 585.0, 584.0, 584.0, 584.0, 584.0, 583.0, 584.0, 583.0, 572.0, 580.0, 585.0, 585.0, 584.0, 583.0, 583.0, 583.0, 584.0, 585.0, 585.0, 584.0],
      "WindowWidth": [1240.0, 1231.0, 1229.0, 1228.0, 1228.0, 1228.0, 1228.0, 1228.0, 1229.0, 1229.0, 1232.0, 1231.0, 1231.0, 1231.0, 1230.0, 1229.0, 1229.0, 1229.0, 1229.0, 1229.0, 1229.0, 1229.0, 1229.0, 1229.0, 1229.0, 1229.0, 1228.0, 1230.0, 1229.0, 1230.0, 1229.0, 1229.0, 1229.0, 1231.0, 1230.0, 1230.0, 1230.0, 1231.0, 1232.0, 1231.0, 1230.0, 1230.0, 1231.0, 1232.0, 1231.0, 1229.0, 1230.0, 1230.0, 1230.0, 1230.0, 1230.0, 1230.0, 1231.0, 1230.0, 1230.0, 1230.0, 1229.0, 1230.0, 1230.0, 1232.0, 1230.0, 1231.0, 1230.0, 1231.0, 1230.0, 1231.0, 1230.0, 1229.0, 1229.0, 1230.0, 1232.0, 1231.0, 1232.0, 1232.0, 1231.0, 1230.0, 1228.0, 1230.0, 1230.0, 1230.0, 1229.0, 1229.0, 1229.0, 1229.0, 1229.0, 1229.0, 1230.0, 1230.0, 1230.0, 1229.0, 1229.0, 1230.0, 1230.0, 1231.0, 1230.0, 1230.0, 1230.0, 1229.0, 1229.0, 1228.0, 1228.0, 1229.0, 1231.0, 1230.0, 1230.0, 1230.0, 1229.0, 1228.0, 1229.0, 1228.0, 1205.0, 1220.0, 1233.0, 1231.0, 1230.0, 1229.0, 1228.0, 1228.0, 1230.0, 1233.0, 1232.0, 1230.0]
    },
    "slices": {}
  }
}