{
  "AcquisitionMatrixPE": 72,
  "AcquisitionNumber": 1,
  "AcquisitionTime": "15:55:23.080000",
  "BandwidthPerPixelPhaseEncode": 24.366,
  "BaseResolution": 72,
  "BodyPartExamined": "BRAIN",
  "CoilCombinationMethod": "Sum of Squares",
  "ConsistencyInfo": "N4_VE11C_LATEST_20160120",
  "ConversionSoftware": "dcm2niix",
  "ConversionSoftwareVersion": "v1.0.20220720",
  "DerivedVendorReportedEchoSpacing": 0.000570011,
  "DeviceSerialNumber": "45219",
  "DwellTime": 3.5e-06,
  "EchoTime": 0.03,
  "EchoTrainLength": 72,
  "EffectiveEchoSpacing": 0.000570011,
  "FlipAngle": 80,
  "HeudiconvVersion": "1.1.6",
  "ImageComments": "Reference volume for motion correction.",
  "ImageOrientationPatientDICOM": [0.999724, -0.0195593, 0.0129866, 0.0174502, 0.989082, 0.146333],
  "ImageOrientationText": "Tra>Cor(8.4)>Sag(0.9)",
  "ImageType": [
    "ORIGINAL",
    "PRIMARY",
    "M",
    "ND",
    "NORM",
    "MOCO",
    "MOSAIC"
],
  "ImagingFrequency": 123.182,
  "InPlanePhaseEncodingDirectionDICOM": "COL",
  "InstitutionAddress": "First Avenue 660,New York,NYC,US,10016",
  "InstitutionName": "NYU LANGONE CBI",
  "InstitutionalDepartmentName": "Department",
  "MRAcquisitionType": "2D",
  "MagneticFieldStrength": 3,
  "Manufacturer": "Siemens",
  "ManufacturersModelName": "Skyra",
  "MatrixCoilMode": "SENSE",
  "Modality": "MR",
  "NonlinearGradientCorrection": false,
  "PartialFourier": 1,
  "PatientPosition": "HFS",
  "PercentPhaseFOV": 100,
  "PercentSampling": 100,
  "PhaseEncodingDirection": "j-",
  "PhaseEncodingSteps": 72,
  "PhaseResolution": 1,
  "PixelBandwidth": 1985,
  "ProcedureStepDescription": "MRI BRAIN WITHOUT IV CONTRAST",
  "ProtocolName": "TASK_AB_MoCo",
  "PulseSequenceDetails": "%SiemensSeq%\\ep2d_bold",
  "ReceiveCoilActiveElements": "HE1-4",
  "ReceiveCoilName": "HeadNeck_20",
  "ReconMatrixPE": 72,
  "RepetitionTime": 2.5,
  "SAR": 0.111295,
  "ScanOptions": "FS",
  "ScanningSequence": "EP",
  "SequenceName": "*epfid2d1_72",
  "SequenceVariant": "SK",
  "SeriesDescription": "MoCoSeries",
  "SeriesNumber": 7,
  "ShimSetting": [-855, -7005, 5029, 181, -160, 287, 357, -221],
  "SliceThickness": 3,
  "SliceTiming": [1.24, 0, 1.305, 0.065, 1.37, 0.13, 1.435, 0.195, 1.5025, 0.2625, 1.5675, 0.3275, 1.6325, 0.3925, 1.6975, 0.4575, 1.7625, 0.5225, 1.8275, 0.5875, 1.8925, 0.6525, 1.9575, 0.7175, 2.0225, 0.7825, 2.0875, 0.85, 2.155, 0.915, 2.22, 0.98, 2.285, 1.045, 2.35, 1.11, 2.415, 1.175],
  "SoftwareVersions": "syngo MR E11",
  "SpacingBetweenSlices": 3,
  "StationName": "MRC45219",
  "TaskName": "ab",
  "TotalReadoutTime": 0.0404708,
  "TxRefAmp": 409.473,
  "dcmmeta_affine": [
    [-2.999173164367676, 0.052350714802742004, 0.04712079465389252, 105.2658920288086],
    [0.0586780346930027, 2.9672443866729736, 0.43819761276245117, -120.70707702636719],
    [0.038959652185440063, -0.4389984607696533, 2.9674506187438965, -30.46245574951172],
    [0.0, 0.0, 0.0, 1.0]
],
  "dcmmeta_reorient_transform": [
    [0.0, -1.0, 0.0, 71.0],
    [1.0, 0.0, 0.0, 0.0],
    [0.0, 0.0, 1.0, 0.0],
    [0.0, 0.0, 0.0, 1.0]
],
  "dcmmeta_shape": [72, 72, 38, 132],
  "dcmmeta_slice_dim": 2,
  "dcmmeta_version": 0.6,
  "global": {
    "const": {
      "AccessionNumber": "REMOVED",
      "AcquisitionMatrix": [72, 0, 0, 72],
      "AngioFlag": "N",
      "BitsAllocated": 16,
      "BitsStored": 12,
      "BodyPartExamined": "BRAIN",
      "Columns": 504,
      "CountryOfResidence": "REMOVED",
      "DeidentificationMethod": "anonymize.default",
      "DeidentificationMethodCodeSequence": [
        {
          "CodeMeaning": "Basic Anonymization",
          "CodeValue": "113199",
          "CodingSchemeDesignator": "2012CDX"
        }
],
      "EchoNumbers": 1,
      "EchoTime": 30.0,
      "EchoTrainLength": 72,
      "FlipAngle": 80.0,
      "HighBit": 11,
      "ImageOrientationPatient": [0.99972435276578, -0.0195593454338, 0.01298655047489, 0.01745023813633, 0.98908149096998, 0.14633281726799],
      "ImagePositionPatient": [-768.1119307211, -718.21763122368, -164.87029629218],
      "ImageType": [
        "ORIGINAL",
        "PRIMARY",
        "M",
        "ND",
        "NORM",
        "MOCO",
        "MOSAIC"
],
      "ImagedNucleus": "1H",
      "ImagingFrequency": 123.182086,
      "InPlanePhaseEncodingDirection": "COL",
      "MRAcquisitionType": "2D",
      "MagneticFieldStrength": 3.0,
      "Manufacturer": "SIEMENS",
      "ManufacturerModelName": "Skyra",
      "Modality": "MR",
      "NumberOfAverages": 1.0,
      "NumberOfPhaseEncodingSteps": 72,
      "PercentPhaseFieldOfView": 100.0,
      "PercentSampling": 100.0,
      "PerformedProcedureStepStartTime": "154639.913000",
      "PhotometricInterpretation": "MONOCHROME2",
      "PixelBandwidth": 1985.0,
      "PixelRepresentation": 0,
      "PixelSpacing": [3.0, 3.0],
      "PregnancyStatus": 0,
      "ProcedureCodeSequence": [
        {
          "CodeMeaning": "MRI BRAIN WITHOUT IV CONTRAST",
          "CodeValue": "IMG269",
          "CodingSchemeDesignator": "L"
        }
],
      "ProtocolName": "TASK_AB",
      "RepetitionTime": 2500.0,
      "RequestAttributesSequence": [
        {
          "RequestedProcedureID": "306547939",
          "ScheduledProcedureStepDescription": "MRI BRAIN WITHOUT IV CONTRAST",
          "ScheduledProcedureStepID": "E9367607",
          "ScheduledProtocolCodeSequence": [
            {
              "CodeMeaning": "MRI BRAIN WITHOUT IV CONTRAST",
              "CodeValue": "651061",
              "CodingSchemeDesignator": "L"
            }
]
        }
],
      "RequestedProcedureCodeSequence": [
        {
          "CodeMeaning": "MRI BRAIN WITHOUT IV CONTRAST",
          "CodeValue": "IMG269",
          "CodingSchemeDesignator": "L"
        }
],
      "Rows": 504,
      "SAR": 0.11129497028876,
      "SamplesPerPixel": 1,
      "ScanOptions": "FS",
      "ScanningSequence": "EP",
      "SequenceName": "*epfid2d1_72",
      "SequenceVariant": "SK",
      "SeriesDescription": "MoCoSeries",
      "SeriesNumber": 7,
      "SeriesTime": "155629.045000",
      "SliceLocation": -46.109722552459,
      "SliceThickness": 3.0,
      "SmallestImagePixelValue": 0,
      "SmokingStatus": "REMOVED",
      "SoftwareVersions": "syngo MR E11",
      "SpacingBetweenSlices": 3.0000001220631,
      "SpecificCharacterSet": "ISO_IR 100",
      "StudyID": "REMOVED",
      "StudyTime": "154639.758000",
      "TransmitCoilName": "Body",
      "VariableFlipAngleFlag": "N",
      "WindowCenterWidthExplanation": "Algo1",
      "dBdt": 0.0},
    "slices": {}
  },
  "time": {
    "samples": {
      "AcquisitionNumber": [1, 2, 3, 4, 5, 6, 7, 8, 9, 10, 11, 12, 13, 14, 15, 16, 17, 18, 19, 20, 21, 22, 23, 24, 25, 26, 27, 28, 29, 30, 31, 32, 33, 34, 35, 36, 37, 38, 39, 40, 41, 42, 43, 44, 45, 46, 47, 48, 49, 50, 51, 52, 53, 54, 55, 56, 57, 58, 59, 60, 61, 62, 63, 64, 65, 66, 67, 68, 69, 70, 71, 72, 73, 74, 75, 76, 77, 78, 79, 80, 81, 82, 83, 84, 85, 86, 87, 88, 89, 90, 91, 92, 93, 94, 95, 96, 97, 98, 99, 100, 101, 102, 103, 104, 105, 106, 107, 108, 109, 110, 111, 112, 113, 114, 115, 116, 117, 118, 119, 120, 121, 122, 123, 124, 125, 126, 127, 128, 129, 130, 131, 132],
      "AcquisitionTime": ["155523.080000", "155525.580000", "155528.080000", "155530.580000", "155533.080000", "155535.580000", "155538.080000", "155540.580000", "155543.080000", "155545.580000", "155548.080000", "155550.580000", "155553.080000", "155555.580000", "155558.080000", "155600.580000", "155603.080000", "155605.580000", "155608.080000", "155610.580000", "155613.080000", "155615.580000", "155618.080000", "155620.580000", "155623.080000", "155625.580000", "155628.080000", "155630.580000", "155633.080000", "155635.580000", "155638.080000", "155640.580000", "155643.080000", "155645.580000", "155648.080000", "155650.580000", "155653.080000", "155655.580000", "155658.080000", "155700.580000", "155703.080000", "155705.580000", "155708.080000", "155710.580000", "155713.080000", "155715.580000", "155718.080000", "155720.580000", "155723.080000", "155725.580000", "155728.080000", "155730.580000", "155733.080000", "155735.580000", "155738.080000", "155740.580000", "155743.080000", "155745.580000", "155748.080000", "155750.580000", "155753.080000", "155755.580000", "155758.080000", "155800.580000", "155803.080000", "155805.580000", "155808.080000", "155810.580000", "155813.080000", "155815.580000", "155818.080000", "155820.580000", "155823.080000", "155825.580000", "155828.080000", "155830.580000", "155833.080000", "155835.580000", "155838.080000", "155840.580000", "155843.080000", "155845.580000", "155848.080000", "155850.580000", "155853.080000", "155855.580000", "155858.080000", "155900.580000", "155903.080000", "155905.580000", "155908.080000", "155910.580000", "155913.080000", "155915.580000", "155918.080000", "155920.580000", "155923.080000", "155925.580000", "155928.080000", "155930.580000", "155933.080000", "155935.580000", "155938.080000", "155940.580000", "155943.080000", "155945.580000", "155948.080000", "155950.580000", "155953.080000", "155955.580000", "155958.080000", "160000.580000", "160003.080000", "160005.580000", "160008.080000", "160010.580000", "160013.080000", "160015.580000", "160018.080000", "160020.580000", "160023.080000", "160025.580000", "160028.080000", "160030.580000", "160033.080000", "160035.580000", "160038.080000", "160040.580000", "160043.080000", "160045.580000", "160048.080000", "160050.580000"],
      "ContentTime": ["155629.048000", "155629.050000", "155629.053000", "155629.056000", "155629.059000", "155629.061000", "155629.064000", "155629.066000", "155629.069000", "155629.072000", "155629.089000", "155629.092000", "155629.095000", "155629.097000", "155629.100000", "155629.103000", "155629.106000", "155629.108000", "155629.111000", "155629.114000", "155629.116000", "155629.119000", "155629.122000", "155629.124000", "155629.127000", "155629.130000", "155729.046000", "155729.048000", "155729.051000", "155729.054000", "155729.057000", "155729.059000", "155729.062000", "155729.064000", "155729.067000", "155729.070000", "155729.073000", "155729.076000", "155729.079000", "155729.081000", "155729.084000", "155729.087000", "155729.089000", "155729.092000", "155729.094000", "155729.097000", "155729.100000", "155729.103000", "155729.105000", "155729.108000", "155829.050000", "155829.053000", "155829.055000", "155829.058000", "155829.061000", "155829.063000", "155829.066000", "155829.069000", "155829.072000", "155829.074000", "155829.077000", "155829.080000", "155829.083000", "155829.085000", "155829.088000", "155829.091000", "155829.093000", "155829.096000", "155829.099000", "155829.101000", "155829.104000", "155829.107000", "155829.109000", "155829.112000", "155929.031000", "155929.034000", "155929.037000", "155929.039000", "155929.042000", "155929.045000", "155929.047000", "155929.050000", "155929.053000", "155929.055000", "155929.058000", "155929.061000", "155929.063000", "155929.066000", "155929.069000", "155929.072000", "155929.074000", "155929.077000", "155929.080000", "155929.082000", "155929.085000", "155929.088000", "155929.091000", "155929.093000", "160029.050000", "160029.053000", "160029.056000", "160029.058000", "160029.061000", "160029.064000", "160029.066000", "160029.069000", "160029.072000", "160029.075000", "160029.078000", "160029.080000", "160029.083000", "160029.086000", "160029.088000", "160029.091000", "160029.094000", "160029.097000", "160029.099000", "160029.102000", "160029.105000", "160029.107000", "160029.110000", "160029.112000", "160052.163000", "160052.166000", "160052.169000", "160052.173000", "160052.176000", "160052.179000", "160052.182000", "160052.185000", "160052.188000", "160052.190000"],
      "InstanceCreationTime": ["155629.048000", "155629.050000", "155629.053000", "155629.056000", "155629.059000", "155629.061000", "155629.064000", "155629.066000", "155629.069000", "155629.072000", "155629.089000", "155629.092000", "155629.095000", "155629.097000", "155629.100000", "155629.103000", "155629.106000", "155629.108000", "155629.111000", "155629.114000", "155629.116000", "155629.119000", "155629.122000", "155629.124000", "155629.127000", "155629.130000", "155729.046000", "155729.048000", "155729.051000", "155729.054000", "155729.057000", "155729.059000", "155729.062000", "155729.064000", "155729.067000", "155729.070000", "155729.073000", "155729.076000", "155729.079000", "155729.081000", "155729.084000", "155729.087000", "155729.089000", "155729.092000", "155729.094000", "155729.097000", "155729.100000", "155729.103000", "155729.105000", "155729.108000", "155829.050000", "155829.053000", "155829.055000", "155829.058000", "155829.061000", "155829.063000", "155829.066000", "155829.069000", "155829.072000", "155829.074000", "155829.077000", "155829.080000", "155829.083000", "155829.085000", "155829.088000", "155829.091000", "155829.093000", "155829.096000", "155829.099000", "155829.101000", "155829.104000", "155829.107000", "155829.109000", "155829.112000", "155929.031000", "155929.034000", "155929.037000", "155929.039000", "155929.042000", "155929.045000", "155929.047000", "155929.050000", "155929.053000", "155929.055000", "155929.058000", "155929.061000", "155929.063000", "155929.066000", "155929.069000", "155929.072000", "155929.074000", "155929.077000", "155929.080000", "155929.082000", "155929.085000", "155929.088000", "155929.091000", "155929.093000", "160029.050000", "160029.053000", "160029.056000", "160029.058000", "160029.061000", "160029.064000", "160029.066000", "160029.069000", "160029.072000", "160029.075000", "160029.078000", "160029.080000", "160029.083000", "160029.086000", "160029.088000", "160029.091000", "160029.094000", "160029.097000", "160029.099000", "160029.102000", "160029.105000", "160029.107000", "160029.110000", "160029.112000", "160052.163000", "160052.166000", "160052.169000", "160052.173000", "160052.176000", "160052.179000", "160052.182000", "160052.185000", "160052.188000", "160052.190000"],
      "InstanceNumber": [1, 2, 3, 4, 5, 6, 7, 8, 9, 10, 11, 12, 13, 14, 15, 16, 17, 18, 19, 20, 21, 22, 23, 24, 25, 26, 27, 28, 29, 30, 31, 32, 33, 34, 35, 36, 37, 38, 39, 40, 41, 42, 43, 44, 45, 46, 47, 48, 49, 50, 51, 52, 53, 54, 55, 56, 57, 58, 59, 60, 61, 62, 63, 64, 65, 66, 67, 68, 69, 70, 71, 72, 73, 74, 75, 76, 77, 78, 79, 80, 81, 82, 83, 84, 85, 86, 87, 88, 89, 90, 91, 92, 93, 94, 95, 96, 97, 98, 99, 100, 101, 102, 103, 104, 105, 106, 107, 108, 109, 110, 111, 112, 113, 114, 115, 116, 117, 118, 119, 120, 121, 122, 123, 124, 125, 126, 127, 128, 129, 130, 131, 132],
      "LargestImagePixelValue": [1572, 1531, 1644, 1526, 1514, 1502, 1557, 1510, 1640, 1511, 1528, 1559, 1505, 1538, 1529, 1510, 1900, 1538, 1509, 1785, 1540, 1501, 1628, 1525, 1534, 1546, 1550, 1509, 1585, 1536, 1510, 1799, 1556, 1504, 1531, 1530, 1510, 1717, 1527, 1521, 1619, 1521, 1522, 1659, 1549, 1528, 1617, 1509, 1630, 1525, 1636, 1509, 1503, 1634, 1511, 1660, 1521, 1516, 1546, 1508, 1533, 1528, 1504, 1569, 1526, 1597, 1501, 1602, 1516, 1661, 1505, 1561, 1540, 1531, 1537, 1586, 1545, 1533, 1520, 1495, 1541, 1520, 1572, 1512, 1517, 1528, 1525, 1533, 1542, 1548, 1521, 1598, 1497, 1536, 1537, 1492, 1534, 1541, 1532, 1546, 1540, 1573, 1551, 1518, 1529, 1519, 1538, 1557, 1540, 1541, 1547, 1534, 1562, 1531, 1551, 1551, 1534, 1555, 1531, 1530, 1556, 1522, 1539, 1555, 1547, 1527, 1556, 1533, 1552, 1572, 1546, 1566],
      "WindowCenter": [637.0, 636.0, 635.0, 633.0, 633.0, 634.0, 634.0, 634.0, 635.0, 635.0, 636.0, 636.0, 635.0, 635.0, 636.0, 636.0, 638.0, 635.0, 634.0, 636.0, 634.0, 634.0, 635.0, 634.0, 636.0, 636.0, 636.0, 636.0, 636.0, 635.0, 635.0, 637.0, 635.0, 634.0, 634.0, 635.0, 635.0, 636.0, 635.0, 635.0, 636.0, 635.0, 635.0, 636.0, 635.0, 635.0, 636.0, 634.0, 636.0, 635.0, 636.0, 634.0, 634.0, 636.0, 635.0, 635.0, 634.0, 634.0, 634.0, 634.0, 635.0, 635.0, 634.0, 634.0, 634.0, 635.0, 634.0, 634.0, 633.0, 634.0, 633.0, 634.0, 633.0, 633.0, 633.0, 634.0, 634.0, 634.0, 634.0, 635.0, 635.0, 634.0, 634.0, 634.0, 633.0, 633.0, 633.0, 634.0, 633.0, 633.0, 633.0, 634.0, 633.0, 634.0, 634.0, 633.0, 633.0, 633.0, 634.0, 634.0, 633.0, 634.0, 634.0, 633.0, 634.0, 634.0, 634.0, 634.0, 634.0, 634.0, 634.0, 633.0, 633.0, 633.0, 634.0, 635.0, 635.0, 635.0, 634.0, 634.0, 634.0, 634.0, 635.0, 634.0, 633.0, 633.0, 634.0, 634.0, 634.0, 635.0, 634.0, 634.0],
      "WindowWidth": [1355.0, 1350.0, 1348.0, 1344.0, 1344.0, 1346.0, 1347.0, 1346.0, 1349.0, 1348.0, 1350.0, 1351.0, 1348.0, 1349.0, 1350.0, 1351.0, 1354.0, 1348.0, 1347.0, 1351.0, 1346.0, 1346.0, 1347.0, 1347.0, 1350.0, 1351.0, 1351.0, 1350.0, 1350.0, 1348.0, 1347.0, 1352.0, 1348.0, 1346.0, 1347.0, 1348.0, 1347.0, 1351.0, 1348.0, 1348.0, 1350.0, 1347.0, 1349.0, 1351.0, 1349.0, 1349.0, 1351.0, 1347.0, 1349.0, 1349.0, 1349.0, 1347.0, 1347.0, 1351.0, 1348.0, 1349.0, 1345.0, 1346.0, 1347.0, 1346.0, 1349.0, 1349.0, 1347.0, 1347.0, 1346.0, 1347.0, 1346.0, 1347.0, 1345.0, 1346.0, 1343.0, 1345.0, 1344.0, 1344.0, 1344.0, 1346.0, 1346.0, 1347.0, 1345.0, 1349.0, 1348.0, 1346.0, 1347.0, 1345.0, 1344.0, 1344.0, 1345.0, 1346.0, 1344.0, 1345.0, 1345.0, 1346.0, 1344.0, 1345.0, 1346.0, 1345.0, 1344.0, 1344.0, 1345.0, 1346.0, 1345.0, 1346.0, 1345.0, 1345.0, 1345.0, 1345.0, 1346.0, 1347.0, 1347.0, 1347.0, 1345.0, 1344.0, 1345.0, 1345.0, 1346.0, 1349.0, 1349.0, 1349.0, 1347.0, 1346.0, 1347.0, 1347.0, 1347.0, 1347.0, 1345.0, 1344.0, 1345.0, 1346.0, 1347.0, 1347.0, 1346.0, 1346.0]
    },
    "slices": {}
  }
}