{
  "AcquisitionMatrixPE": 72,
  "AcquisitionNumber": 1,
  "AcquisitionTime": "16:07:43.800000",
  "BandwidthPerPixelPhaseEncode": 24.366,
  "BaseResolution": 72,
  "BodyPartExamined": "BRAIN",
  "CoilCombinationMethod": "Sum of Squares",
  "ConsistencyInfo": "N4_VE11C_LATEST_20160120",
  "ConversionSoftware": "dcm2niix",
  "ConversionSoftwareVersion": "v1.0.20220720",
  "DerivedVendorReportedEchoSpacing": 0.000570011,
  "DeviceSerialNumber": "45219",
  "DwellTime": 3.5e-06,
  "EchoTime": 0.03,
  "EchoTrainLength": 72,
  "EffectiveEchoSpacing": 0.000570011,
  "FlipAngle": 80,
  "HeudiconvVersion": "1.1.6",
  "ImageComments": "Reference volume for motion correction.",
  "ImageOrientationPatientDICOM": [0.999724, -0.0195593, 0.0129866, 0.0174502, 0.989082, 0.146333],
  "ImageOrientationText": "Tra>Cor(8.4)>Sag(0.9)",
  "ImageType": [
    "ORIGINAL",
    "PRIMARY",
    "M",
    "ND",
    "NORM",
    "MOCO",
    "MOSAIC"
],
  "ImagingFrequency": 123.182,
  "InPlanePhaseEncodingDirectionDICOM": "COL",
  "InstitutionAddress": "First Avenue 660,New York,NYC,US,10016",
  "InstitutionName": "NYU LANGONE CBI",
  "InstitutionalDepartmentName": "Department",
  "MRAcquisitionType": "2D",
  "MagneticFieldStrength": 3,
  "Manufacturer": "Siemens",
  "ManufacturersModelName": "Skyra",
  "MatrixCoilMode": "SENSE",
  "Modality": "MR",
  "NonlinearGradientCorrection": false,
  "PartialFourier": 1,
  "PatientPosition": "HFS",
  "PercentPhaseFOV": 100,
  "PercentSampling": 100,
  "PhaseEncodingDirection": "j-",
  "PhaseEncodingSteps": 72,
  "PhaseResolution": 1,
  "PixelBandwidth": 1985,
  "ProcedureStepDescription": "MRI BRAIN WITHOUT IV CONTRAST",
  "ProtocolName": "REST_1_MoCo",
  "PulseSequenceDetails": "%SiemensSeq%\\ep2d_bold",
  "ReceiveCoilActiveElements": "HE1-4",
  "ReceiveCoilName": "HeadNeck_20",
  "ReconMatrixPE": 72,
  "RepetitionTime": 2.5,
  "SAR": 0.111255,
  "ScanOptions": "FS",
  "ScanningSequence": "EP",
  "SequenceName": "*epfid2d1_72",
  "SequenceVariant": "SK",
  "SeriesDescription": "MoCoSeries",
  "SeriesNumber": 11,
  "ShimSetting": [-855, -7005, 5029, 181, -160, 287, 357, -221],
  "SliceThickness": 3,
  "SliceTiming": [1.24, 0, 1.305, 0.065, 1.3725, 0.1325, 1.4375, 0.1975, 1.5025, 0.2625, 1.5675, 0.3275, 1.6325, 0.3925, 1.6975, 0.4575, 1.7625, 0.5225, 1.8275, 0.5875, 1.8925, 0.6525, 1.96, 0.72, 2.025, 0.785, 2.09, 0.85, 2.155, 0.915, 2.22, 0.98, 2.285, 1.045, 2.35, 1.11, 2.415, 1.175],
  "SoftwareVersions": "syngo MR E11",
  "SpacingBetweenSlices": 3,
  "StationName": "MRC45219",
  "TaskName": "rest",
  "TotalReadoutTime": 0.0404708,
  "TxRefAmp": 409.473,
  "dcmmeta_affine": [
    [-2.999173164367676, 0.052350714802742004, 0.04712079465389252, 105.2658920288086],
    [0.0586780346930027, 2.9672443866729736, 0.43819761276245117, -120.70707702636719],
    [0.038959652185440063, -0.4389984607696533, 2.9674506187438965, -30.46245574951172],
    [0.0, 0.0, 0.0, 1.0]
],
  "dcmmeta_reorient_transform": [
    [0.0, -1.0, 0.0, 71.0],
    [1.0, 0.0, 0.0, 0.0],
    [0.0, 0.0, 1.0, 0.0],
    [0.0, 0.0, 0.0, 1.0]
],
  "dcmmeta_shape": [72, 72, 38, 122],
  "dcmmeta_slice_dim": 2,
  "dcmmeta_version": 0.6,
  "global": {
    "const": {
      "AccessionNumber": "REMOVED",
      "AcquisitionMatrix": [72, 0, 0, 72],
      "AngioFlag": "N",
      "BitsAllocated": 16,
      "BitsStored": 12,
      "BodyPartExamined": "BRAIN",
      "Columns": 504,
      "CountryOfResidence": "REMOVED",
      "DeidentificationMethod": "anonymize.default",
      "DeidentificationMethodCodeSequence": [
        {
          "CodeMeaning": "Basic Anonymization",
          "CodeValue": "113199",
          "CodingSchemeDesignator": "2012CDX"
        }
],
      "EchoNumbers": 1,
      "EchoTime": 30.0,
      "EchoTrainLength": 72,
      "FlipAngle": 80.0,
      "HighBit": 11,
      "ImageOrientationPatient": [0.99972435276578, -0.0195593454338, 0.01298655047489, 0.01745023813633, 0.98908149096998, 0.14633281726799],
      "ImagePositionPatient": [-768.1119307211, -718.21763122368, -164.87029629218],
      "ImageType": [
        "ORIGINAL",
        "PRIMARY",
        "M",
        "ND",
        "NORM",
        "MOCO",
        "MOSAIC"
],
      "ImagedNucleus": "1H",
      "ImagingFrequency": 123.182147,
      "InPlanePhaseEncodingDirection": "COL",
      "MRAcquisitionType": "2D",
      "MagneticFieldStrength": 3.0,
      "Manufacturer": "SIEMENS",
      "ManufacturerModelName": "Skyra",
      "Modality": "MR",
      "NumberOfAverages": 1.0,
      "NumberOfPhaseEncodingSteps": 72,
      "PercentPhaseFieldOfView": 100.0,
      "PercentSampling": 100.0,
      "PerformedProcedureStepStartTime": "154639.913000",
      "PhotometricInterpretation": "MONOCHROME2",
      "PixelBandwidth": 1985.0,
      "PixelRepresentation": 0,
      "PixelSpacing": [3.0, 3.0],
      "PregnancyStatus": 0,
      "ProcedureCodeSequence": [
        {
          "CodeMeaning": "MRI BRAIN WITHOUT IV CONTRAST",
          "CodeValue": "IMG269",
          "CodingSchemeDesignator": "L"
        }
],
      "ProtocolName": "REST_1",
      "RepetitionTime": 2500.0,
      "RequestAttributesSequence": [
        {
          "RequestedProcedureID": "306547939",
          "ScheduledProcedureStepDescription": "MRI BRAIN WITHOUT IV CONTRAST",
          "ScheduledProcedureStepID": "E9367607",
          "ScheduledProtocolCodeSequence": [
            {
              "CodeMeaning": "MRI BRAIN WITHOUT IV CONTRAST",
              "CodeValue": "651061",
              "CodingSchemeDesignator": "L"
            }
]
        }
],
      "RequestedProcedureCodeSequence": [
        {
          "CodeMeaning": "MRI BRAIN WITHOUT IV CONTRAST",
          "CodeValue": "IMG269",
          "CodingSchemeDesignator": "L"
        }
],
      "Rows": 504,
      "SAR": 0.11125497791324,
      "SamplesPerPixel": 1,
      "ScanOptions": "FS",
      "ScanningSequence": "EP",
      "SequenceName": "*epfid2d1_72",
      "SequenceVariant": "SK",
      "SeriesDescription": "MoCoSeries",
      "SeriesNumber": 11,
      "SeriesTime": "160843.335000",
      "SliceLocation": -46.109722552459,
      "SliceThickness": 3.0,
      "SmallestImagePixelValue": 0,
      "SmokingStatus": "REMOVED",
      "SoftwareVersions": "syngo MR E11",
      "SpacingBetweenSlices": 3.0000001220631,
      "SpecificCharacterSet": "ISO_IR 100",
      "StudyID": "REMOVED",
      "StudyTime": "154639.758000",
      "TransmitCoilName": "Body",
      "VariableFlipAngleFlag": "N",
      "WindowCenterWidthExplanation": "Algo1",
      "dBdt": 0.0},
    "slices": {}
  },
  "time": {
    "samples": {
      "AcquisitionNumber": [1, 2, 3, 4, 5, 6, 7, 8, 9, 10, 11, 12, 13, 14, 15, 16, 17, 18, 19, 20, 21, 22, 23, 24, 25, 26, 27, 28, 29, 30, 31, 32, 33, 34, 35, 36, 37, 38, 39, 40, 41, 42, 43, 44, 45, 46, 47, 48, 49, 50, 51, 52, 53, 54, 55, 56, 57, 58, 59, 60, 61, 62, 63, 64, 65, 66, 67, 68, 69, 70, 71, 72, 73, 74, 75, 76, 77, 78, 79, 80, 81, 82, 83, 84, 85, 86, 87, 88, 89, 90, 91, 92, 93, 94, 95, 96, 97, 98, 99, 100, 101, 102, 103, 104, 105, 106, 107, 108, 109, 110, 111, 112, 113, 114, 115, 116, 117, 118, 119, 120, 121, 122],
      "AcquisitionTime": ["160743.800000", "160746.300000", "160748.800000", "160751.300000", "160753.800000", "160756.300000", "160758.800000", "160801.300000", "160803.800000", "160806.300000", "160808.800000", "160811.300000", "160813.800000", "160816.300000", "160818.800000", "160821.300000", "160823.800000", "160826.300000", "160828.800000", "160831.300000", "160833.800000", "160836.300000", "160838.800000", "160841.300000", "160843.800000", "160846.300000", "160848.800000", "160851.300000", "160853.800000", "160856.300000", "160858.800000", "160901.300000", "160903.800000", "160906.300000", "160908.800000", "160911.300000", "160913.800000", "160916.300000", "160918.800000", "160921.300000", "160923.800000", "160926.300000", "160928.800000", "160931.300000", "160933.800000", "160936.300000", "160938.800000", "160941.300000", "160943.800000", "160946.300000", "160948.800000", "160951.300000", "160953.800000", "160956.300000", "160958.800000", "161001.300000", "161003.800000", "161006.300000", "161008.800000", "161011.300000", "161013.800000", "161016.300000", "161018.800000", "161021.300000", "161023.800000", "161026.300000", "161028.800000", "161031.300000", "161033.800000", "161036.300000", "161038.800000", "161041.300000", "161043.800000", "161046.300000", "161048.800000", "161051.300000", "161053.800000", "161056.300000", "161058.800000", "161101.300000", "161103.800000", "161106.300000", "161108.800000", "161111.300000", "161113.800000", "161116.300000", "161118.800000", "161121.300000", "161123.800000", "161126.300000", "161128.800000", "161131.300000", "161133.800000", "161136.300000", "161138.800000", "161141.300000", "161143.800000", "161146.300000", "161148.800000", "161151.300000", "161153.800000", "161156.300000", "161158.800000", "161201.300000", "161203.800000", "161206.300000", "161208.800000", "161211.300000", "161213.800000", "161216.300000", "161218.800000", "161221.300000", "161223.800000", "161226.300000", "161228.800000", "161231.300000", "161233.800000", "161236.300000", "161238.800000", "161241.300000", "161243.800000", "161246.300000"],
      "ContentTime": ["160843.337000", "160843.340000", "160843.343000", "160843.352000", "160843.354000", "160843.357000", "160843.360000", "160843.362000", "160843.365000", "160843.368000", "160843.370000", "160843.373000", "160843.376000", "160843.378000", "160843.381000", "160843.384000", "160843.386000", "160843.389000", "160843.392000", "160843.395000", "160843.397000", "160843.400000", "160843.403000", "160843.405000", "160943.760000", "160943.763000", "160943.766000", "160943.769000", "160943.771000", "160943.774000", "160943.777000", "160943.779000", "160943.782000", "160943.785000", "160943.787000", "160943.790000", "160943.797000", "160943.800000", "160943.802000", "160943.805000", "160943.807000", "160943.810000", "160943.813000", "160943.816000", "160943.818000", "160943.821000", "160943.824000", "160943.826000", "161043.323000", "161043.326000", "161043.328000", "161043.331000", "161043.334000", "161043.337000", "161043.339000", "161043.342000", "161043.345000", "161043.348000", "161043.351000", "161043.353000", "161043.357000", "161043.360000", "161043.362000", "161043.365000", "161043.368000", "161043.371000", "161043.373000", "161043.376000", "161043.379000", "161043.382000", "161043.384000", "161043.387000", "161143.321000", "161143.324000", "161143.327000", "161143.329000", "161143.332000", "161143.335000", "161143.338000", "161143.340000", "161143.343000", "161143.346000", "161143.349000", "161143.351000", "161143.354000", "161143.357000", "161143.360000", "161143.362000", "161143.365000", "161143.368000", "161143.370000", "161143.373000", "161143.376000", "161143.379000", "161143.381000", "161143.384000", "161243.315000", "161243.318000", "161243.320000", "161243.323000", "161243.326000", "161243.328000", "161243.331000", "161243.334000", "161243.336000", "161243.339000", "161243.341000", "161243.344000", "161243.347000", "161243.349000", "161243.352000", "161243.355000", "161243.357000", "161243.360000", "161243.363000", "161243.365000", "161243.368000", "161243.371000", "161243.374000", "161243.376000", "161248.009000", "161248.014000"],
      "InstanceCreationTime": ["160843.337000", "160843.340000", "160843.343000", "160843.352000", "160843.354000", "160843.357000", "160843.360000", "160843.362000", "160843.365000", "160843.368000", "160843.370000", "160843.373000", "160843.376000", "160843.378000", "160843.381000", "160843.384000", "160843.386000", "160843.389000", "160843.392000", "160843.395000", "160843.397000", "160843.400000", "160843.403000", "160843.405000", "160943.760000", "160943.763000", "160943.766000", "160943.769000", "160943.771000", "160943.774000", "160943.777000", "160943.779000", "160943.782000", "160943.785000", "160943.787000", "160943.790000", "160943.797000", "160943.800000", "160943.802000", "160943.805000", "160943.807000", "160943.810000", "160943.813000", "160943.816000", "160943.818000", "160943.821000", "160943.824000", "160943.826000", "161043.323000", "161043.326000", "161043.328000", "161043.331000", "161043.334000", "161043.337000", "161043.339000", "161043.342000", "161043.345000", "161043.348000", "161043.351000", "161043.353000", "161043.357000", "161043.360000", "161043.362000", "161043.365000", "161043.368000", "161043.371000", "161043.373000", "161043.376000", "161043.379000", "161043.382000", "161043.384000", "161043.387000", "161143.321000", "161143.324000", "161143.327000", "161143.329000", "161143.332000", "161143.335000", "161143.338000", "161143.340000", "161143.343000", "161143.346000", "161143.349000", "161143.351000", "161143.354000", "161143.357000", "161143.360000", "161143.362000", "161143.365000", "161143.368000", "161143.370000", "161143.373000", "161143.376000", "161143.379000", "161143.381000", "161143.384000", "161243.315000", "161243.318000", "161243.320000", "161243.323000", "161243.326000", "161243.328000", "161243.331000", "161243.334000", "161243.336000", "161243.339000", "161243.341000", "161243.344000", "161243.347000", "161243.349000", "161243.352000", "161243.355000", "161243.357000", "161243.360000", "161243.363000", "161243.365000", "161243.368000", "161243.371000", "161243.374000", "161243.376000", "161248.009000", "161248.014000"],
      "InstanceNumber": [1, 2, 3, 4, 5, 6, 7, 8, 9, 10, 11, 12, 13, 14, 15, 16, 17, 18, 19, 20, 21, 22, 23, 24, 25, 26, 27, 28, 29, 30, 31, 32, 33, 34, 35, 36, 37, 38, 39, 40, 41, 42, 43, 44, 45, 46, 47, 48, 49, 50, 51, 52, 53, 54, 55, 56, 57, 58, 59, 60, 61, 62, 63, 64, 65, 66, 67, 68, 69, 70, 71, 72, 73, 74, 75, 76, 77, 78, 79, 80, 81, 82, 83, 84, 85, 86, 87, 88, 89, 90, 91, 92, 93, 94, 95, 96, 97, 98, 99, 100, 101, 102, 103, 104, 105, 106, 107, 108, 109, 110, 111, 112, 113, 114, 115, 116, 117, 118, 119, 120, 121, 122],
      "LargestImagePixelValue": [1571, 1968, 1520, 1514, 1831, 1529, 1672, 1552, 1525, 1759, 1524, 1588, 1525, 1641, 1516, 1552, 1882, 1569, 1559, 1521, 1879, 1588, 1577, 1518, 1901, 1519, 1565, 1793, 1560, 1600, 1668, 1536, 1807, 1587, 1523, 1813, 1529, 1524, 1685, 1672, 1585, 1670, 1588, 1581, 1683, 1525, 1545, 1803, 1535, 1536, 1529, 1793, 1545, 1822, 1518, 1572, 1538, 1797, 1700, 1536, 1541, 1534, 1716, 1619, 1510, 1583, 1534, 1668, 1509, 1537, 1535, 1590, 1522, 1585, 1522, 1599, 1523, 1536, 1746, 1514, 1514, 1536, 1791, 1520, 1510, 1551, 1727, 1517, 1529, 1531, 1782, 1536, 1520, 1592, 1627, 1500, 1516, 1821, 1516, 1537, 1756, 1519, 1581, 1525, 1510, 1689, 1517, 1517, 1536, 1612, 1568, 1542, 1531, 1698, 1530, 1553, 1574, 1703, 1519, 1532, 1669, 1506],
      "WindowCenter": [636.0, 635.0, 632.0, 632.0, 634.0, 632.0, 633.0, 632.0, 632.0, 634.0, 633.0, 634.0, 633.0, 635.0, 634.0, 634.0, 636.0, 634.0, 634.0, 633.0, 636.0, 634.0, 634.0, 634.0, 636.0, 633.0, 634.0, 635.0, 634.0, 634.0, 634.0, 633.0, 635.0, 634.0, 633.0, 636.0, 633.0, 633.0, 634.0, 635.0, 634.0, 635.0, 634.0, 634.0, 635.0, 634.0, 634.0, 636.0, 634.0, 634.0, 634.0, 636.0, 633.0, 635.0, 633.0, 634.0, 633.0, 636.0, 635.0, 633.0, 633.0, 633.0, 635.0, 634.0, 633.0, 633.0, 633.0, 634.0, 633.0, 633.0, 633.0, 635.0, 634.0, 634.0, 633.0, 634.0, 633.0, 634.0, 635.0, 633.0, 633.0, 633.0, 635.0, 632.0, 632.0, 633.0, 634.0, 632.0, 633.0, 633.0, 635.0, 633.0, 633.0, 634.0, 634.0, 633.0, 633.0, 635.0, 633.0, 633.0, 635.0, 633.0, 633.0, 633.0, 633.0, 634.0, 633.0, 634.0, 634.0, 634.0, 633.0, 633.0, 633.0, 634.0, 634.0, 634.0, 634.0, 635.0, 633.0, 633.0, 634.0, 633.0],
      "WindowWidth": [1349.0, 1347.0, 1340.0, 1340.0, 1345.0, 1341.0, 1342.0, 1341.0, 1341.0, 1345.0, 1343.0, 1345.0, 1343.0, 1346.0, 1344.0, 1345.0, 1349.0, 1346.0, 1345.0, 1344.0, 1348.0, 1346.0, 1346.0, 1344.0, 1349.0, 1344.0, 1345.0, 1347.0, 1344.0, 1344.0, 1344.0, 1342.0, 1346.0, 1344.0, 1343.0, 1348.0, 1343.0, 1343.0, 1345.0, 1346.0, 1345.0, 1346.0, 1344.0, 1345.0, 1347.0, 1345.0, 1345.0, 1348.0, 1345.0, 1345.0, 1344.0, 1348.0, 1343.0, 1345.0, 1343.0, 1344.0, 1343.0, 1348.0, 1346.0, 1343.0, 1343.0, 1343.0, 1346.0, 1344.0, 1342.0, 1342.0, 1342.0, 1345.0, 1342.0, 1343.0, 1344.0, 1346.0, 1346.0, 1345.0, 1344.0, 1344.0, 1343.0, 1344.0, 1348.0, 1343.0, 1342.0, 1343.0, 1346.0, 1341.0, 1341.0, 1341.0, 1344.0, 1341.0, 1342.0, 1342.0, 1345.0, 1343.0, 1343.0, 1344.0, 1344.0, 1343.0, 1343.0, 1347.0, 1342.0, 1343.0, 1346.0, 1342.0, 1343.0, 1343.0, 1343.0, 1344.0, 1343.0, 1344.0, 1344.0, 1344.0, 1342.0, 1342.0, 1343.0, 1345.0, 1344.0, 1344.0, 1344.0, 1345.0, 1342.0, 1342.0, 1345.0, 1343.0]
    },
    "slices": {}
  }
}