{
  "AcquisitionMatrixPE": 72,
  "AcquisitionNumber": 1,
  "AcquisitionTime": "16:07:43.800000",
  "BandwidthPerPixelPhaseEncode": 24.366,
  "BaseResolution": 72,
  "BodyPartExamined": "BRAIN",
  "CoilCombinationMethod": "Sum of Squares",
  "ConsistencyInfo": "N4_VE11C_LATEST_20160120",
  "ConversionSoftware": "dcm2niix",
  "ConversionSoftwareVersion": "v1.0.20220720",
  "DerivedVendorReportedEchoSpacing": 0.000570011,
  "DeviceSerialNumber": "45219",
  "DwellTime": 3.5e-06,
  "EchoTime": 0.03,
  "EchoTrainLength": 72,
  "EffectiveEchoSpacing": 0.000570011,
  "FlipAngle": 80,
  "HeudiconvVersion": "1.1.6",
  "ImageOrientationPatientDICOM": [0.999724, -0.0195593, 0.0129866, 0.0174502, 0.989082, 0.146333],
  "ImageOrientationText": "Tra>Cor(8.4)>Sag(0.9)",
  "ImageType": [
    "ORIGINAL",
    "PRIMARY",
    "M",
    "ND",
    "NORM",
    "MOSAIC"
],
  "ImagingFrequency": 123.182,
  "InPlanePhaseEncodingDirectionDICOM": "COL",
  "InstitutionAddress": "First Avenue 660,New York,NYC,US,10016",
  "InstitutionName": "NYU LANGONE CBI",
  "InstitutionalDepartmentName": "Department",
  "MRAcquisitionType": "2D",
  "MagneticFieldStrength": 3,
  "Manufacturer": "Siemens",
  "ManufacturersModelName": "Skyra",
  "MatrixCoilMode": "SENSE",
  "Modality": "MR",
  "NonlinearGradientCorrection": false,
  "PartialFourier": 1,
  "PatientPosition": "HFS",
  "PercentPhaseFOV": 100,
  "PercentSampling": 100,
  "PhaseEncodingDirection": "j-",
  "PhaseEncodingSteps": 72,
  "PhaseResolution": 1,
  "PixelBandwidth": 1985,
  "ProcedureStepDescription": "MRI BRAIN WITHOUT IV CONTRAST",
  "ProtocolName": "REST_1",
  "PulseSequenceDetails": "%SiemensSeq%\\ep2d_bold",
  "ReceiveCoilActiveElements": "HE1-4",
  "ReceiveCoilName": "HeadNeck_20",
  "ReconMatrixPE": 72,
  "RepetitionTime": 2.5,
  "SAR": 0.111255,
  "ScanOptions": "FS",
  "ScanningSequence": "EP",
  "SequenceName": "*epfid2d1_72",
  "SequenceVariant": "SK",
  "SeriesDescription": "REST_1",
  "SeriesNumber": 10,
  "ShimSetting": [-855, -7005, 5029, 181, -160, 287, 357, -221],
  "SliceThickness": 3,
  "SliceTiming": [1.24, 0, 1.305, 0.065, 1.3725, 0.1325, 1.4375, 0.1975, 1.5025, 0.2625, 1.5675, 0.3275, 1.6325, 0.3925, 1.6975, 0.4575, 1.7625, 0.5225, 1.8275, 0.5875, 1.8925, 0.6525, 1.96, 0.72, 2.025, 0.785, 2.09, 0.85, 2.155, 0.915, 2.22, 0.98, 2.285, 1.045, 2.35, 1.11, 2.415, 1.175],
  "SoftwareVersions": "syngo MR E11",
  "SpacingBetweenSlices": 3,
  "StationName": "MRC45219",
  "TaskName": "rest",
  "TotalReadoutTime": 0.0404708,
  "TxRefAmp": 409.473,
  "dcmmeta_affine": [
    [-2.999173164367676, 0.052350714802742004, 0.04712079465389252, 105.2658920288086],
    [0.0586780346930027, 2.9672443866729736, 0.43819761276245117, -120.70707702636719],
    [0.038959652185440063, -0.4389984607696533, 2.9674506187438965, -30.46245574951172],
    [0.0, 0.0, 0.0, 1.0]
],
  "dcmmeta_reorient_transform": [
    [0.0, -1.0, 0.0, 71.0],
    [1.0, 0.0, 0.0, 0.0],
    [0.0, 0.0, 1.0, 0.0],
    [0.0, 0.0, 0.0, 1.0]
],
  "dcmmeta_shape": [72, 72, 38, 122],
  "dcmmeta_slice_dim": 2,
  "dcmmeta_version": 0.6,
  "global": {
    "const": {
      "AccessionNumber": "REMOVED",
      "AcquisitionMatrix": [72, 0, 0, 72],
      "AngioFlag": "N",
      "BitsAllocated": 16,
      "BitsStored": 12,
      "BodyPartExamined": "BRAIN",
      "Columns": 504,
      "CountryOfResidence": "REMOVED",
      "DeidentificationMethod": "anonymize.default",
      "DeidentificationMethodCodeSequence": [
        {
          "CodeMeaning": "Basic Anonymization",
          "CodeValue": "113199",
          "CodingSchemeDesignator": "2012CDX"
        }
],
      "EchoNumbers": 1,
      "EchoTime": 30.0,
      "EchoTrainLength": 72,
      "FlipAngle": 80.0,
      "HighBit": 11,
      "ImageOrientationPatient": [0.99972435276578, -0.0195593454338, 0.01298655047489, 0.01745023813633, 0.98908149096998, 0.14633281726799],
      "ImagePositionPatient": [-768.1119307211, -718.21763122368, -164.87029629218],
      "ImageType": [
        "ORIGINAL",
        "PRIMARY",
        "M",
        "ND",
        "NORM",
        "MOSAIC"
],
      "ImagedNucleus": "1H",
      "ImagingFrequency": 123.182147,
      "InPlanePhaseEncodingDirection": "COL",
      "MRAcquisitionType": "2D",
      "MagneticFieldStrength": 3.0,
      "Manufacturer": "SIEMENS",
      "ManufacturerModelName": "Skyra",
      "Modality": "MR",
      "NumberOfAverages": 1.0,
      "NumberOfPhaseEncodingSteps": 72,
      "PercentPhaseFieldOfView": 100.0,
      "PercentSampling": 100.0,
      "PerformedProcedureStepStartTime": "154639.913000",
      "PhotometricInterpretation": "MONOCHROME2",
      "PixelBandwidth": 1985.0,
      "PixelRepresentation": 0,
      "PixelSpacing": [3.0, 3.0],
      "PregnancyStatus": 0,
      "ProcedureCodeSequence": [
        {
          "CodeMeaning": "MRI BRAIN WITHOUT IV CONTRAST",
          "CodeValue": "IMG269",
          "CodingSchemeDesignator": "L"
        }
],
      "ProtocolName": "REST_1",
      "RepetitionTime": 2500.0,
      "RequestAttributesSequence": [
        {
          "RequestedProcedureID": "306547939",
          "ScheduledProcedureStepDescription": "MRI BRAIN WITHOUT IV CONTRAST",
          "ScheduledProcedureStepID": "E9367607",
          "ScheduledProtocolCodeSequence": [
            {
              "CodeMeaning": "MRI BRAIN WITHOUT IV CONTRAST",
              "CodeValue": "651061",
              "CodingSchemeDesignator": "L"
            }
]
        }
],
      "RequestedProcedureCodeSequence": [
        {
          "CodeMeaning": "MRI BRAIN WITHOUT IV CONTRAST",
          "CodeValue": "IMG269",
          "CodingSchemeDesignator": "L"
        }
],
      "Rows": 504,
      "SAR": 0.11125497791324,
      "SamplesPerPixel": 1,
      "ScanOptions": "FS",
      "ScanningSequence": "EP",
      "SequenceName": "*epfid2d1_72",
      "SequenceVariant": "SK",
      "SeriesDescription": "REST_1",
      "SeriesNumber": 10,
      "SeriesTime": "160843.226000",
      "SliceLocation": -46.109722552459,
      "SliceThickness": 3.0,
      "SmallestImagePixelValue": 0,
      "SmokingStatus": "REMOVED",
      "SoftwareVersions": "syngo MR E11",
      "SpacingBetweenSlices": 3.0000001220631,
      "SpecificCharacterSet": "ISO_IR 100",
      "StudyID": "REMOVED",
      "StudyTime": "154639.758000",
      "TransmitCoilName": "Body",
      "VariableFlipAngleFlag": "N",
      "WindowCenterWidthExplanation": "Algo1",
      "dBdt": 0.0},
    "slices": {}
  },
  "time": {
    "samples": {
      "AcquisitionNumber": [1, 2, 3, 4, 5, 6, 7, 8, 9, 10, 11, 12, 13, 14, 15, 16, 17, 18, 19, 20, 21, 22, 23, 24, 25, 26, 27, 28, 29, 30, 31, 32, 33, 34, 35, 36, 37, 38, 39, 40, 41, 42, 43, 44, 45, 46, 47, 48, 49, 50, 51, 52, 53, 54, 55, 56, 57, 58, 59, 60, 61, 62, 63, 64, 65, 66, 67, 68, 69, 70, 71, 72, 73, 74, 75, 76, 77, 78, 79, 80, 81, 82, 83, 84, 85, 86, 87, 88, 89, 90, 91, 92, 93, 94, 95, 96, 97, 98, 99, 100, 101, 102, 103, 104, 105, 106, 107, 108, 109, 110, 111, 112, 113, 114, 115, 116, 117, 118, 119, 120, 121, 122],
      "AcquisitionTime": ["160743.800000", "160746.300000", "160748.800000", "160751.300000", "160753.800000", "160756.300000", "160758.800000", "160801.300000", "160803.800000", "160806.300000", "160808.800000", "160811.300000", "160813.800000", "160816.300000", "160818.800000", "160821.300000", "160823.800000", "160826.300000", "160828.800000", "160831.300000", "160833.800000", "160836.300000", "160838.800000", "160841.300000", "160843.800000", "160846.300000", "160848.800000", "160851.300000", "160853.800000", "160856.300000", "160858.800000", "160901.300000", "160903.800000", "160906.300000", "160908.800000", "160911.300000", "160913.800000", "160916.300000", "160918.800000", "160921.300000", "160923.800000", "160926.300000", "160928.800000", "160931.300000", "160933.800000", "160936.300000", "160938.800000", "160941.300000", "160943.800000", "160946.300000", "160948.800000", "160951.300000", "160953.800000", "160956.300000", "160958.800000", "161001.300000", "161003.800000", "161006.300000", "161008.800000", "161011.300000", "161013.800000", "161016.300000", "161018.800000", "161021.300000", "161023.800000", "161026.300000", "161028.800000", "161031.300000", "161033.800000", "161036.300000", "161038.800000", "161041.300000", "161043.800000", "161046.300000", "161048.800000", "161051.300000", "161053.800000", "161056.300000", "161058.800000", "161101.300000", "161103.800000", "161106.300000", "161108.800000", "161111.300000", "161113.800000", "161116.300000", "161118.800000", "161121.300000", "161123.800000", "161126.300000", "161128.800000", "161131.300000", "161133.800000", "161136.300000", "161138.800000", "161141.300000", "161143.800000", "161146.300000", "161148.800000", "161151.300000", "161153.800000", "161156.300000", "161158.800000", "161201.300000", "161203.800000", "161206.300000", "161208.800000", "161211.300000", "161213.800000", "161216.300000", "161218.800000", "161221.300000", "161223.800000", "161226.300000", "161228.800000", "161231.300000", "161233.800000", "161236.300000", "161238.800000", "161241.300000", "161243.800000", "161246.300000"],
      "ContentTime": ["160843.230000", "160843.234000", "160843.236000", "160843.239000", "160843.242000", "160843.244000", "160843.247000", "160843.254000", "160843.258000", "160843.261000", "160843.264000", "160843.270000", "160843.272000", "160843.275000", "160843.284000", "160843.287000", "160843.289000", "160843.292000", "160843.295000", "160843.298000", "160843.300000", "160843.303000", "160843.305000", "160843.308000", "160943.224000", "160943.228000", "160943.230000", "160943.233000", "160943.235000", "160943.238000", "160943.241000", "160943.243000", "160943.246000", "160943.249000", "160943.251000", "160943.254000", "160943.256000", "160943.259000", "160943.262000", "160943.264000", "160943.267000", "160943.269000", "160943.272000", "160943.275000", "160943.277000", "160943.280000", "160943.282000", "160943.285000", "161043.225000", "161043.228000", "161043.230000", "161043.233000", "161043.236000", "161043.238000", "161043.241000", "161043.244000", "161043.246000", "161043.249000", "161043.252000", "161043.254000", "161043.257000", "161043.260000", "161043.262000", "161043.265000", "161043.268000", "161043.270000", "161043.273000", "161043.276000", "161043.278000", "161043.281000", "161043.284000", "161043.286000", "161143.225000", "161143.228000", "161143.230000", "161143.233000", "161143.235000", "161143.238000", "161143.241000", "161143.243000", "161143.246000", "161143.249000", "161143.251000", "161143.254000", "161143.256000", "161143.259000", "161143.262000", "161143.264000", "161143.267000", "161143.270000", "161143.272000", "161143.275000", "161143.278000", "161143.280000", "161143.283000", "161143.285000", "161243.225000", "161243.228000", "161243.230000", "161243.233000", "161243.235000", "161243.238000", "161243.241000", "161243.243000", "161243.246000", "161243.248000", "161243.251000", "161243.253000", "161243.256000", "161243.259000", "161243.261000", "161243.264000", "161243.266000", "161243.269000", "161243.272000", "161243.274000", "161243.277000", "161243.279000", "161243.282000", "161243.284000", "161247.964000", "161247.975000"],
      "InstanceCreationTime": ["160843.230000", "160843.234000", "160843.236000", "160843.239000", "160843.242000", "160843.244000", "160843.247000", "160843.254000", "160843.258000", "160843.261000", "160843.264000", "160843.270000", "160843.272000", "160843.275000", "160843.284000", "160843.287000", "160843.289000", "160843.292000", "160843.295000", "160843.298000", "160843.300000", "160843.303000", "160843.305000", "160843.308000", "160943.224000", "160943.228000", "160943.230000", "160943.233000", "160943.235000", "160943.238000", "160943.241000", "160943.243000", "160943.246000", "160943.249000", "160943.251000", "160943.254000", "160943.256000", "160943.259000", "160943.262000", "160943.264000", "160943.267000", "160943.269000", "160943.272000", "160943.275000", "160943.277000", "160943.280000", "160943.282000", "160943.285000", "161043.225000", "161043.228000", "161043.230000", "161043.233000", "161043.236000", "161043.238000", "161043.241000", "161043.244000", "161043.246000", "161043.249000", "161043.252000", "161043.254000", "161043.257000", "161043.260000", "161043.262000", "161043.265000", "161043.268000", "161043.270000", "161043.273000", "161043.276000", "161043.278000", "161043.281000", "161043.284000", "161043.286000", "161143.225000", "161143.228000", "161143.230000", "161143.233000", "161143.235000", "161143.238000", "161143.241000", "161143.243000", "161143.246000", "161143.249000", "161143.251000", "161143.254000", "161143.256000", "161143.259000", "161143.262000", "161143.264000", "161143.267000", "161143.270000", "161143.272000", "161143.275000", "161143.278000", "161143.280000", "161143.283000", "161143.285000", "161243.225000", "161243.228000", "161243.230000", "161243.233000", "161243.235000", "161243.238000", "161243.241000", "161243.243000", "161243.246000", "161243.248000", "161243.251000", "161243.253000", "161243.256000", "161243.259000", "161243.261000", "161243.264000", "161243.266000", "161243.269000", "161243.272000", "161243.274000", "161243.277000", "161243.279000", "161243.282000", "161243.284000", "161247.964000", "161247.975000"],
      "InstanceNumber": [1, 2, 3, 4, 5, 6, 7, 8, 9, 10, 11, 12, 13, 14, 15, 16, 17, 18, 19, 20, 21, 22, 23, 24, 25, 26, 27, 28, 29, 30, 31, 32, 33, 34, 35, 36, 37, 38, 39, 40, 41, 42, 43, 44, 45, 46, 47, 48, 49, 50, 51, 52, 53, 54, 55, 56, 57, 58, 59, 60, 61, 62, 63, 64, 65, 66, 67, 68, 69, 70, 71, 72, 73, 74, 75, 76, 77, 78, 79, 80, 81, 82, 83, 84, 85, 86, 87, 88, 89, 90, 91, 92, 93, 94, 95, 96, 97, 98, 99, 100, 101, 102, 103, 104, 105, 106, 107, 108, 109, 110, 111, 112, 113, 114, 115, 116, 117, 118, 119, 120, 121, 122],
      "LargestImagePixelValue": [1571, 1925, 1521, 1515, 1812, 1529, 1730, 1530, 1526, 1820, 1524, 1591, 1536, 1614, 1518, 1551, 1896, 1561, 1549, 1525, 1851, 1573, 1562, 1521, 1869, 1521, 1560, 1746, 1543, 1585, 1628, 1522, 1787, 1572, 1520, 1773, 1517, 1523, 1685, 1630, 1568, 1673, 1548, 1566, 1688, 1517, 1534, 1802, 1535, 1533, 1531, 1753, 1539, 1859, 1520, 1566, 1540, 1870, 1660, 1530, 1545, 1535, 1787, 1582, 1510, 1588, 1592, 1717, 1511, 1541, 1535, 1698, 1517, 1594, 1520, 1606, 1522, 1644, 1735, 1515, 1530, 1590, 1954, 1518, 1524, 1550, 1943, 1515, 1541, 1530, 1929, 1535, 1519, 1597, 1804, 1497, 1517, 1803, 1511, 1537, 1715, 1524, 1712, 1530, 1512, 1853, 1517, 1518, 1546, 1788, 1560, 1548, 1525, 1682, 1533, 1559, 1737, 1696, 1515, 1539, 1853, 1500],
      "WindowCenter": [636.0, 635.0, 632.0, 632.0, 634.0, 632.0, 634.0, 632.0, 632.0, 635.0, 633.0, 634.0, 633.0, 635.0, 634.0, 634.0, 636.0, 634.0, 634.0, 634.0, 636.0, 634.0, 634.0, 634.0, 636.0, 633.0, 634.0, 635.0, 634.0, 633.0, 633.0, 632.0, 635.0, 633.0, 633.0, 635.0, 633.0, 633.0, 634.0, 634.0, 634.0, 634.0, 633.0, 634.0, 635.0, 634.0, 634.0, 635.0, 634.0, 634.0, 634.0, 635.0, 633.0, 635.0, 633.0, 634.0, 633.0, 636.0, 634.0, 633.0, 633.0, 633.0, 635.0, 633.0, 633.0, 633.0, 633.0, 635.0, 633.0, 633.0, 634.0, 636.0, 634.0, 635.0, 633.0, 634.0, 633.0, 635.0, 636.0, 634.0, 633.0, 634.0, 636.0, 633.0, 632.0, 633.0, 635.0, 632.0, 633.0, 633.0, 635.0, 633.0, 633.0, 634.0, 635.0, 633.0, 633.0, 635.0, 633.0, 633.0, 635.0, 633.0, 634.0, 633.0, 633.0, 635.0, 633.0, 634.0, 633.0, 635.0, 633.0, 633.0, 633.0, 635.0, 634.0, 634.0, 635.0, 635.0, 633.0, 633.0, 635.0, 633.0],
      "WindowWidth": [1349.0, 1347.0, 1340.0, 1340.0, 1345.0, 1341.0, 1343.0, 1340.0, 1341.0, 1346.0, 1343.0, 1345.0, 1343.0, 1346.0, 1344.0, 1344.0, 1349.0, 1346.0, 1345.0, 1344.0, 1348.0, 1345.0, 1345.0, 1344.0, 1348.0, 1343.0, 1345.0, 1346.0, 1344.0, 1343.0, 1343.0, 1341.0, 1345.0, 1343.0, 1343.0, 1347.0, 1343.0, 1343.0, 1345.0, 1345.0, 1344.0, 1345.0, 1343.0, 1345.0, 1346.0, 1345.0, 1344.0, 1347.0, 1344.0, 1344.0, 1345.0, 1347.0, 1343.0, 1346.0, 1342.0, 1344.0, 1343.0, 1349.0, 1345.0, 1343.0, 1343.0, 1343.0, 1347.0, 1343.0, 1342.0, 1342.0, 1343.0, 1346.0, 1342.0, 1343.0, 1344.0, 1348.0, 1345.0, 1346.0, 1343.0, 1344.0, 1343.0, 1346.0, 1348.0, 1344.0, 1343.0, 1344.0, 1348.0, 1341.0, 1341.0, 1342.0, 1347.0, 1341.0, 1342.0, 1342.0, 1347.0, 1343.0, 1343.0, 1344.0, 1347.0, 1343.0, 1343.0, 1346.0, 1342.0, 1343.0, 1347.0, 1342.0, 1345.0, 1343.0, 1343.0, 1347.0, 1342.0, 1344.0, 1343.0, 1346.0, 1342.0, 1343.0, 1342.0, 1345.0, 1344.0, 1344.0, 1347.0, 1346.0, 1343.0, 1342.0, 1347.0, 1342.0]
    },
    "slices": {}
  }
}