{
  "AcquisitionMatrixPE": 72,
  "AcquisitionNumber": 1,
  "AcquisitionTime": "19:15:37.602500",
  "BodyPartExamined": "BRAIN",
  "ConversionSoftware": "dcm2niix",
  "ConversionSoftwareVersion": "v1.0.20220720",
  "DeviceSerialNumber": "45219",
  "EchoNumber": 2,
  "EchoTime": 0.00738,
  "EchoTime1": 0.00492,
  "EchoTime2": 0.00738,
  "FlipAngle": 60,
  "HeudiconvVersion": "1.1.6",
  "ImageOrientationPatientDICOM": [0.999628, 0.0200651, 0.0184504, -0.0209392, 0.998605, 0.0484751],
  "ImageType": [
    "ORIGINAL",
    "PRIMARY",
    "P",
    "ND",
    "PHASE"
],
  "ImagingFrequency": 123.181,
  "InPlanePhaseEncodingDirectionDICOM": "ROW",
  "MRAcquisitionType": "2D",
  "MagneticFieldStrength": 3,
  "Manufacturer": "Siemens",
  "ManufacturersModelName": "DicomCleaner",
  "Modality": "MR",
  "MultibandAccelerationFactor": 2,
  "NonlinearGradientCorrection": false,
  "PatientPosition": "HFS",
  "PercentPhaseFOV": 100,
  "PercentSampling": 100,
  "PhaseEncodingAxis": "i",
  "PhaseEncodingSteps": 72,
  "PixelBandwidth": 290,
  "ProtocolName": "gre_fm_bold",
  "ReconMatrixPE": 72,
  "RepetitionTime": 0.444,
  "SAR": 0.160705,
  "ScanningSequence": "GR",
  "SequenceName": "*fm2d2r",
  "SequenceVariant": "SP",
  "SeriesDescription": "gre_fm_bold",
  "SeriesNumber": 5,
  "SliceThickness": 3,
  "SliceTiming": [0.23438, 0, 0.23438, 0.01562, 0.25, 0.03125, 0.26562, 0.04688, 0.26562, 0.04688, 0.28125, 0.0625, 0.29688, 0.07812, 0.3125, 0.09375, 0.3125, 0.09375, 0.32812, 0.10938, 0.34375, 0.125, 0.35938, 0.125, 0.375, 0.14062, 0.375, 0.15625, 0.39062, 0.17188, 0.40625, 0.1875, 0.40625, 0.1875, 0.42188, 0.20312, 0.4375, 0.21875],
  "SoftwareVersions": "Tue Feb 12 18:07:17 EST 2019",
  "SpacingBetweenSlices": 3,
  "StationName": "PIERRJ03PC",
  "dcmmeta_affine": [
    [-2.998885154724121, -0.06281769275665283, 0.05235600471496582, 110.72081756591797],
    [-0.060195181518793106, 2.995814561843872, 0.1465301513671875, -112.85688018798828],
    [0.0553511306643486, -0.1454252004623413, 2.9959564208984375, -26.49796485900879],
    [0.0, 0.0, 0.0, 1.0]
],
  "dcmmeta_reorient_transform": [
    [0.0, -1.0, 0.0, 71.0],
    [1.0, 0.0, 0.0, 0.0],
    [0.0, 0.0, -1.0, 37.0],
    [0.0, 0.0, 0.0, 1.0]
],
  "dcmmeta_shape": [72, 72, 38],
  "dcmmeta_slice_dim": 2,
  "dcmmeta_version": 0.6,
  "global": {
    "const": {
      "AcquisitionMatrix": [0, 72, 72, 0],
      "AcquisitionNumber": 1,
      "AngioFlag": "N",
      "BitsAllocated": 16,
      "BitsStored": 12,
      "BodyPartExamined": "BRAIN",
      "Columns": 72,
      "DeidentificationMethod": [
        "Deidentified",
        "Descriptors removed except series except protocol",
        "Patient Characteristics removed",
        "Device identity retained",
        "Institution identity removed",
        "Dates retained",
        "Structured content modified",
        "Unsafe private removed",
        "UIDs remapped"
],
      "DeidentificationMethodCodeSequence": [
        {
          "CodeMeaning": "Basic Application Confidentiality Profile",
          "CodeValue": "113100",
          "CodingSchemeDesignator": "DCM"
        },
        {
          "CodeMeaning": "Remove all descriptors except Series Description & Protocol Name",
          "CodeValue": "210008",
          "CodingSchemeDesignator": "99PMP"
        },
        {
          "CodeMeaning": "Retain Device Identity Option",
          "CodeValue": "113109",
          "CodingSchemeDesignator": "DCM"
        },
        {
          "CodeMeaning": "Retain Longitudinal Temporal Information Full Dates Option",
          "CodeValue": "113106",
          "CodingSchemeDesignator": "DCM"
        },
        {
          "CodeMeaning": "Clean Structured Content Option",
          "CodeValue": "113104",
          "CodingSchemeDesignator": "DCM"
        },
        {
          "CodeMeaning": "Retain Safe Private Option",
          "CodeValue": "113111",
          "CodingSchemeDesignator": "DCM"
        },
        {
          "CodeMeaning": "Remap UIDs",
          "CodeValue": "210001",
          "CodingSchemeDesignator": "99PMP"
        }
],
      "EchoNumbers": 2,
      "EchoTime": 7.38,
      "EchoTrainLength": 0,
      "FlipAngle": 60.0,
      "HighBit": 11,
      "ImageOrientationPatient": [0.99962841943733, 0.02006506034538, 0.01845037686803, -0.0209392311666, 0.9986048850091, 0.04847506817018],
      "ImageType": [
        "ORIGINAL",
        "PRIMARY",
        "P",
        "ND"
],
      "ImagedNucleus": "1H",
      "ImagingFrequency": 123.180701,
      "InPlanePhaseEncodingDirection": "ROW",
      "MRAcquisitionType": "2D",
      "MagneticFieldStrength": 3.0,
      "Manufacturer": "SIEMENS",
      "ManufacturerModelName": "Skyra",
      "Modality": "MR",
      "NumberOfAverages": 1.0,
      "NumberOfPhaseEncodingSteps": 72,
      "PercentPhaseFieldOfView": 100.0,
      "PercentSampling": 100.0,
      "PerformedProcedureStepStartTime": "190638.658000",
      "PhotometricInterpretation": "MONOCHROME2",
      "PixelBandwidth": 290.0,
      "PixelRepresentation": 0,
      "PixelSpacing": [3.0, 3.0],
      "ProcedureCodeSequence": [
        {
          "CodeMeaning": "MRI BRAIN WITHOUT IV CONTRAST",
          "CodeValue": "IMG269",
          "CodingSchemeDesignator": "L"
        }
],
      "ProtocolName": "gre_fm_bold",
      "RepetitionTime": 444.0,
      "RequestedProcedureCodeSequence": [
        {
          "CodeMeaning": "MRI BRAIN WITHOUT IV CONTRAST",
          "CodeValue": "IMG269",
          "CodingSchemeDesignator": "L"
        }
],
      "RescaleIntercept": -4096.0,
      "RescaleSlope": 2.0,
      "RescaleType": "US",
      "Rows": 72,
      "SAR": 0.16070491412463,
      "SamplesPerPixel": 1,
      "ScanningSequence": "GR",
      "SequenceName": "*fm2d2r",
      "SequenceVariant": "SP",
      "SeriesDescription": "gre_fm_bold",
      "SeriesNumber": 5,
      "SeriesTime": "191641.566000",
      "SliceThickness": 3.0,
      "SoftwareVersions": "syngo MR E11",
      "SpacingBetweenSlices": 3.0,
      "StudyTime": "190638.505000",
      "TransmitCoilName": "Body",
      "VariableFlipAngleFlag": "N",
      "WindowCenterWidthExplanation": "Algo1",
      "dBdt": 0.0},
    "slices": {
      "AcquisitionTime": ["191537.602500", "191537.380000", "191537.612500", "191537.392500", "191537.625000", "191537.402500", "191537.637500", "191537.415000", "191537.647500", "191537.427500", "191537.660000", "191537.437500", "191537.672500", "191537.450000", "191537.682500", "191537.462500", "191537.695000", "191537.472500", "191537.707500", "191537.485000", "191537.717500", "191537.497500", "191537.730000", "191537.507500", "191537.742500", "191537.520000", "191537.752500", "191537.532500", "191537.765000", "191537.542500", "191537.777500", "191537.555000", "191537.787500", "191537.567500", "191537.800000", "191537.577500", "191537.812500", "191537.590000"],
      "ContentTime": ["191641.616000", "191641.569000", "191641.619000", "191641.572000", "191641.621000", "191641.574000", "191641.623000", "191641.581000", "191641.625000", "191641.583000", "191641.628000", "191641.585000", "191641.630000", "191641.587000", "191641.632000", "191641.590000", "191641.634000", "191641.592000", "191641.637000", "191641.594000", "191641.639000", "191641.596000", "191641.641000", "191641.598000", "191641.643000", "191641.600000", "191641.646000", "191641.603000", "191641.648000", "191641.605000", "191641.650000", "191641.607000", "191641.652000", "191641.609000", "191641.655000", "191641.612000", "191641.657000", "191641.614000"],
      "ContributingEquipmentSequence": [
        [
          {
            "ContributionDateTime": "20200312121538.098-0400",
            "ContributionDescription": "Cleaned",
            "Manufacturer": "PixelMed",
            "ManufacturerModelName": "DicomCleaner",
            "PurposeOfReferenceCodeSequence": [
              {
                "CodeMeaning": "De-identifying Equipment",
                "CodeValue": "109104",
                "CodingSchemeDesignator": "DCM"
              }
],
            "SoftwareVersions": "Tue Feb 12 18:07:17 EST 2019",
            "StationName": "PIERRJ03PC"
          }
],
        [
          {
            "ContributionDateTime": "20200312121538.109-0400",
            "ContributionDescription": "Cleaned",
            "Manufacturer": "PixelMed",
            "ManufacturerModelName": "DicomCleaner",
            "PurposeOfReferenceCodeSequence": [
              {
                "CodeMeaning": "De-identifying Equipment",
                "CodeValue": "109104",
                "CodingSchemeDesignator": "DCM"
              }
],
            "SoftwareVersions": "Tue Feb 12 18:07:17 EST 2019",
            "StationName": "PIERRJ03PC"
          }
],
        [
          {
            "ContributionDateTime": "20200312121538.118-0400",
            "ContributionDescription": "Cleaned",
            "Manufacturer": "PixelMed",
            "ManufacturerModelName": "DicomCleaner",
            "PurposeOfReferenceCodeSequence": [
              {
                "CodeMeaning": "De-identifying Equipment",
                "CodeValue": "109104",
                "CodingSchemeDesignator": "DCM"
              }
],
            "SoftwareVersions": "Tue Feb 12 18:07:17 EST 2019",
            "StationName": "PIERRJ03PC"
          }
],
        [
          {
            "ContributionDateTime": "20200312121538.126-0400",
            "ContributionDescription": "Cleaned",
            "Manufacturer": "PixelMed",
            "ManufacturerModelName": "DicomCleaner",
            "PurposeOfReferenceCodeSequence": [
              {
                "CodeMeaning": "De-identifying Equipment",
                "CodeValue": "109104",
                "CodingSchemeDesignator": "DCM"
              }
],
            "SoftwareVersions": "Tue Feb 12 18:07:17 EST 2019",
            "StationName": "PIERRJ03PC"
          }
],
        [
          {
            "ContributionDateTime": "20200312121538.135-0400",
            "ContributionDescription": "Cleaned",
            "Manufacturer": "PixelMed",
            "ManufacturerModelName": "DicomCleaner",
            "PurposeOfReferenceCodeSequence": [
              {
                "CodeMeaning": "De-identifying Equipment",
                "CodeValue": "109104",
                "CodingSchemeDesignator": "DCM"
              }
],
            "SoftwareVersions": "Tue Feb 12 18:07:17 EST 2019",
            "StationName": "PIERRJ03PC"
          }
],
        [
          {
            "ContributionDateTime": "20200312121538.145-0400",
            "ContributionDescription": "Cleaned",
            "Manufacturer": "PixelMed",
            "ManufacturerModelName": "DicomCleaner",
            "PurposeOfReferenceCodeSequence": [
              {
                "CodeMeaning": "De-identifying Equipment",
                "CodeValue": "109104",
                "CodingSchemeDesignator": "DCM"
              }
],
            "SoftwareVersions": "Tue Feb 12 18:07:17 EST 2019",
            "StationName": "PIERRJ03PC"
          }
],
        [
          {
            "ContributionDateTime": "20200312121538.154-0400",
            "ContributionDescription": "Cleaned",
            "Manufacturer": "PixelMed",
            "ManufacturerModelName": "DicomCleaner",
            "PurposeOfReferenceCodeSequence": [
              {
                "CodeMeaning": "De-identifying Equipment",
                "CodeValue": "109104",
                "CodingSchemeDesignator": "DCM"
              }
],
            "SoftwareVersions": "Tue Feb 12 18:07:17 EST 2019",
            "StationName": "PIERRJ03PC"
          }
],
        [
          {
            "ContributionDateTime": "20200312121538.162-0400",
            "ContributionDescription": "Cleaned",
            "Manufacturer": "PixelMed",
            "ManufacturerModelName": "DicomCleaner",
            "PurposeOfReferenceCodeSequence": [
              {
                "CodeMeaning": "De-identifying Equipment",
                "CodeValue": "109104",
                "CodingSchemeDesignator": "DCM"
              }
],
            "SoftwareVersions": "Tue Feb 12 18:07:17 EST 2019",
            "StationName": "PIERRJ03PC"
          }
],
        [
          {
            "ContributionDateTime": "20200312121538.171-0400",
            "ContributionDescription": "Cleaned",
            "Manufacturer": "PixelMed",
            "ManufacturerModelName": "DicomCleaner",
            "PurposeOfReferenceCodeSequence": [
              {
                "CodeMeaning": "De-identifying Equipment",
                "CodeValue": "109104",
                "CodingSchemeDesignator": "DCM"
              }
],
            "SoftwareVersions": "Tue Feb 12 18:07:17 EST 2019",
            "StationName": "PIERRJ03PC"
          }
],
        [
          {
            "ContributionDateTime": "20200312121538.178-0400",
            "ContributionDescription": "Cleaned",
            "Manufacturer": "PixelMed",
            "ManufacturerModelName": "DicomCleaner",
            "PurposeOfReferenceCodeSequence": [
              {
                "CodeMeaning": "De-identifying Equipment",
                "CodeValue": "109104",
                "CodingSchemeDesignator": "DCM"
              }
],
            "SoftwareVersions": "Tue Feb 12 18:07:17 EST 2019",
            "StationName": "PIERRJ03PC"
          }
],
        [
          {
            "ContributionDateTime": "20200312121538.186-0400",
            "ContributionDescription": "Cleaned",
            "Manufacturer": "PixelMed",
            "ManufacturerModelName": "DicomCleaner",
            "PurposeOfReferenceCodeSequence": [
              {
                "CodeMeaning": "De-identifying Equipment",
                "CodeValue": "109104",
                "CodingSchemeDesignator": "DCM"
              }
],
            "SoftwareVersions": "Tue Feb 12 18:07:17 EST 2019",
            "StationName": "PIERRJ03PC"
          }
],
        [
          {
            "ContributionDateTime": "20200312121538.195-0400",
            "ContributionDescription": "Cleaned",
            "Manufacturer": "PixelMed",
            "ManufacturerModelName": "DicomCleaner",
            "PurposeOfReferenceCodeSequence": [
              {
                "CodeMeaning": "De-identifying Equipment",
                "CodeValue": "109104",
                "CodingSchemeDesignator": "DCM"
              }
],
            "SoftwareVersions": "Tue Feb 12 18:07:17 EST 2019",
            "StationName": "PIERRJ03PC"
          }
],
        [
          {
            "ContributionDateTime": "20200312121538.203-0400",
            "ContributionDescription": "Cleaned",
            "Manufacturer": "PixelMed",
            "ManufacturerModelName": "DicomCleaner",
            "PurposeOfReferenceCodeSequence": [
              {
                "CodeMeaning": "De-identifying Equipment",
                "CodeValue": "109104",
                "CodingSchemeDesignator": "DCM"
              }
],
            "SoftwareVersions": "Tue Feb 12 18:07:17 EST 2019",
            "StationName": "PIERRJ03PC"
          }
],
        [
          {
            "ContributionDateTime": "20200312121538.212-0400",
            "ContributionDescription": "Cleaned",
            "Manufacturer": "PixelMed",
            "ManufacturerModelName": "DicomCleaner",
            "PurposeOfReferenceCodeSequence": [
              {
                "CodeMeaning": "De-identifying Equipment",
                "CodeValue": "109104",
                "CodingSchemeDesignator": "DCM"
              }
],
            "SoftwareVersions": "Tue Feb 12 18:07:17 EST 2019",
            "StationName": "PIERRJ03PC"
          }
],
        [
          {
            "ContributionDateTime": "20200312121538.221-0400",
            "ContributionDescription": "Cleaned",
            "Manufacturer": "PixelMed",
            "ManufacturerModelName": "DicomCleaner",
            "PurposeOfReferenceCodeSequence": [
              {
                "CodeMeaning": "De-identifying Equipment",
                "CodeValue": "109104",
                "CodingSchemeDesignator": "DCM"
              }
],
            "SoftwareVersions": "Tue Feb 12 18:07:17 EST 2019",
            "StationName": "PIERRJ03PC"
          }
],
        [
          {
            "ContributionDateTime": "20200312121538.229-0400",
            "ContributionDescription": "Cleaned",
            "Manufacturer": "PixelMed",
            "ManufacturerModelName": "DicomCleaner",
            "PurposeOfReferenceCodeSequence": [
              {
                "CodeMeaning": "De-identifying Equipment",
                "CodeValue": "109104",
                "CodingSchemeDesignator": "DCM"
              }
],
            "SoftwareVersions": "Tue Feb 12 18:07:17 EST 2019",
            "StationName": "PIERRJ03PC"
          }
],
        [
          {
            "ContributionDateTime": "20200312121538.237-0400",
            "ContributionDescription": "Cleaned",
            "Manufacturer": "PixelMed",
            "ManufacturerModelName": "DicomCleaner",
            "PurposeOfReferenceCodeSequence": [
              {
                "CodeMeaning": "De-identifying Equipment",
                "CodeValue": "109104",
                "CodingSchemeDesignator": "DCM"
              }
],
            "SoftwareVersions": "Tue Feb 12 18:07:17 EST 2019",
            "StationName": "PIERRJ03PC"
          }
],
        [
          {
            "ContributionDateTime": "20200312121538.246-0400",
            "ContributionDescription": "Cleaned",
            "Manufacturer": "PixelMed",
            "ManufacturerModelName": "DicomCleaner",
            "PurposeOfReferenceCodeSequence": [
              {
                "CodeMeaning": "De-identifying Equipment",
                "CodeValue": "109104",
                "CodingSchemeDesignator": "DCM"
              }
],
            "SoftwareVersions": "Tue Feb 12 18:07:17 EST 2019",
            "StationName": "PIERRJ03PC"
          }
],
        [
          {
            "ContributionDateTime": "20200312121538.254-0400",
            "ContributionDescription": "Cleaned",
            "Manufacturer": "PixelMed",
            "ManufacturerModelName": "DicomCleaner",
            "PurposeOfReferenceCodeSequence": [
              {
                "CodeMeaning": "De-identifying Equipment",
                "CodeValue": "109104",
                "CodingSchemeDesignator": "DCM"
              }
],
            "SoftwareVersions": "Tue Feb 12 18:07:17 EST 2019",
            "StationName": "PIERRJ03PC"
          }
],
        [
          {
            "ContributionDateTime": "20200312121538.262-0400",
            "ContributionDescription": "Cleaned",
            "Manufacturer": "PixelMed",
            "ManufacturerModelName": "DicomCleaner",
            "PurposeOfReferenceCodeSequence": [
              {
                "CodeMeaning": "De-identifying Equipment",
                "CodeValue": "109104",
                "CodingSchemeDesignator": "DCM"
              }
],
            "SoftwareVersions": "Tue Feb 12 18:07:17 EST 2019",
            "StationName": "PIERRJ03PC"
          }
],
        [
          {
            "ContributionDateTime": "20200312121538.270-0400",
            "ContributionDescription": "Cleaned",
            "Manufacturer": "PixelMed",
            "ManufacturerModelName": "DicomCleaner",
            "PurposeOfReferenceCodeSequence": [
              {
                "CodeMeaning": "De-identifying Equipment",
                "CodeValue": "109104",
                "CodingSchemeDesignator": "DCM"
              }
],
            "SoftwareVersions": "Tue Feb 12 18:07:17 EST 2019",
            "StationName": "PIERRJ03PC"
          }
],
        [
          {
            "ContributionDateTime": "20200312121538.279-0400",
            "ContributionDescription": "Cleaned",
            "Manufacturer": "PixelMed",
            "ManufacturerModelName": "DicomCleaner",
            "PurposeOfReferenceCodeSequence": [
              {
                "CodeMeaning": "De-identifying Equipment",
                "CodeValue": "109104",
                "CodingSchemeDesignator": "DCM"
              }
],
            "SoftwareVersions": "Tue Feb 12 18:07:17 EST 2019",
            "StationName": "PIERRJ03PC"
          }
],
        [
          {
            "ContributionDateTime": "20200312121538.287-0400",
            "ContributionDescription": "Cleaned",
            "Manufacturer": "PixelMed",
            "ManufacturerModelName": "DicomCleaner",
            "PurposeOfReferenceCodeSequence": [
              {
                "CodeMeaning": "De-identifying Equipment",
                "CodeValue": "109104",
                "CodingSchemeDesignator": "DCM"
              }
],
            "SoftwareVersions": "Tue Feb 12 18:07:17 EST 2019",
            "StationName": "PIERRJ03PC"
          }
],
        [
          {
            "ContributionDateTime": "20200312121538.295-0400",
            "ContributionDescription": "Cleaned",
            "Manufacturer": "PixelMed",
            "ManufacturerModelName": "DicomCleaner",
            "PurposeOfReferenceCodeSequence": [
              {
                "CodeMeaning": "De-identifying Equipment",
                "CodeValue": "109104",
                "CodingSchemeDesignator": "DCM"
              }
],
            "SoftwareVersions": "Tue Feb 12 18:07:17 EST 2019",
            "StationName": "PIERRJ03PC"
          }
],
        [
          {
            "ContributionDateTime": "20200312121538.303-0400",
            "ContributionDescription": "Cleaned",
            "Manufacturer": "PixelMed",
            "ManufacturerModelName": "DicomCleaner",
            "PurposeOfReferenceCodeSequence": [
              {
                "CodeMeaning": "De-identifying Equipment",
                "CodeValue": "109104",
                "CodingSchemeDesignator": "DCM"
              }
],
            "SoftwareVersions": "Tue Feb 12 18:07:17 EST 2019",
            "StationName": "PIERRJ03PC"
          }
],
        [
          {
            "ContributionDateTime": "20200312121538.311-0400",
            "ContributionDescription": "Cleaned",
            "Manufacturer": "PixelMed",
            "ManufacturerModelName": "DicomCleaner",
            "PurposeOfReferenceCodeSequence": [
              {
                "CodeMeaning": "De-identifying Equipment",
                "CodeValue": "109104",
                "CodingSchemeDesignator": "DCM"
              }
],
            "SoftwareVersions": "Tue Feb 12 18:07:17 EST 2019",
            "StationName": "PIERRJ03PC"
          }
],
        [
          {
            "ContributionDateTime": "20200312121538.320-0400",
            "ContributionDescription": "Cleaned",
            "Manufacturer": "PixelMed",
            "ManufacturerModelName": "DicomCleaner",
            "PurposeOfReferenceCodeSequence": [
              {
                "CodeMeaning": "De-identifying Equipment",
                "CodeValue": "109104",
                "CodingSchemeDesignator": "DCM"
              }
],
            "SoftwareVersions": "Tue Feb 12 18:07:17 EST 2019",
            "StationName": "PIERRJ03PC"
          }
],
        [
          {
            "ContributionDateTime": "20200312121538.328-0400",
            "ContributionDescription": "Cleaned",
            "Manufacturer": "PixelMed",
            "ManufacturerModelName": "DicomCleaner",
            "PurposeOfReferenceCodeSequence": [
              {
                "CodeMeaning": "De-identifying Equipment",
                "CodeValue": "109104",
                "CodingSchemeDesignator": "DCM"
              }
],
            "SoftwareVersions": "Tue Feb 12 18:07:17 EST 2019",
            "StationName": "PIERRJ03PC"
          }
],
        [
          {
            "ContributionDateTime": "20200312121538.336-0400",
            "ContributionDescription": "Cleaned",
            "Manufacturer": "PixelMed",
            "ManufacturerModelName": "DicomCleaner",
            "PurposeOfReferenceCodeSequence": [
              {
                "CodeMeaning": "De-identifying Equipment",
                "CodeValue": "109104",
                "CodingSchemeDesignator": "DCM"
              }
],
            "SoftwareVersions": "Tue Feb 12 18:07:17 EST 2019",
            "StationName": "PIERRJ03PC"
          }
],
        [
          {
            "ContributionDateTime": "20200312121538.344-0400",
            "ContributionDescription": "Cleaned",
            "Manufacturer": "PixelMed",
            "ManufacturerModelName": "DicomCleaner",
            "PurposeOfReferenceCodeSequence": [
              {
                "CodeMeaning": "De-identifying Equipment",
                "CodeValue": "109104",
                "CodingSchemeDesignator": "DCM"
              }
],
            "SoftwareVersions": "Tue Feb 12 18:07:17 EST 2019",
            "StationName": "PIERRJ03PC"
          }
],
        [
          {
            "ContributionDateTime": "20200312121538.352-0400",
            "ContributionDescription": "Cleaned",
            "Manufacturer": "PixelMed",
            "ManufacturerModelName": "DicomCleaner",
            "PurposeOfReferenceCodeSequence": [
              {
                "CodeMeaning": "De-identifying Equipment",
                "CodeValue": "109104",
                "CodingSchemeDesignator": "DCM"
              }
],
            "SoftwareVersions": "Tue Feb 12 18:07:17 EST 2019",
            "StationName": "PIERRJ03PC"
          }
],
        [
          {
            "ContributionDateTime": "20200312121538.361-0400",
            "ContributionDescription": "Cleaned",
            "Manufacturer": "PixelMed",
            "ManufacturerModelName": "DicomCleaner",
            "PurposeOfReferenceCodeSequence": [
              {
                "CodeMeaning": "De-identifying Equipment",
                "CodeValue": "109104",
                "CodingSchemeDesignator": "DCM"
              }
],
            "SoftwareVersions": "Tue Feb 12 18:07:17 EST 2019",
            "StationName": "PIERRJ03PC"
          }
],
        [
          {
            "ContributionDateTime": "20200312121538.369-0400",
            "ContributionDescription": "Cleaned",
            "Manufacturer": "PixelMed",
            "ManufacturerModelName": "DicomCleaner",
            "PurposeOfReferenceCodeSequence": [
              {
                "CodeMeaning": "De-identifying Equipment",
                "CodeValue": "109104",
                "CodingSchemeDesignator": "DCM"
              }
],
            "SoftwareVersions": "Tue Feb 12 18:07:17 EST 2019",
            "StationName": "PIERRJ03PC"
          }
],
        [
          {
            "ContributionDateTime": "20200312121538.377-0400",
            "ContributionDescription": "Cleaned",
            "Manufacturer": "PixelMed",
            "ManufacturerModelName": "DicomCleaner",
            "PurposeOfReferenceCodeSequence": [
              {
                "CodeMeaning": "De-identifying Equipment",
                "CodeValue": "109104",
                "CodingSchemeDesignator": "DCM"
              }
],
            "SoftwareVersions": "Tue Feb 12 18:07:17 EST 2019",
            "StationName": "PIERRJ03PC"
          }
],
        [
          {
            "ContributionDateTime": "20200312121538.386-0400",
            "ContributionDescription": "Cleaned",
            "Manufacturer": "PixelMed",
            "ManufacturerModelName": "DicomCleaner",
            "PurposeOfReferenceCodeSequence": [
              {
                "CodeMeaning": "De-identifying Equipment",
                "CodeValue": "109104",
                "CodingSchemeDesignator": "DCM"
              }
],
            "SoftwareVersions": "Tue Feb 12 18:07:17 EST 2019",
            "StationName": "PIERRJ03PC"
          }
],
        [
          {
            "ContributionDateTime": "20200312121538.394-0400",
            "ContributionDescription": "Cleaned",
            "Manufacturer": "PixelMed",
            "ManufacturerModelName": "DicomCleaner",
            "PurposeOfReferenceCodeSequence": [
              {
                "CodeMeaning": "De-identifying Equipment",
                "CodeValue": "109104",
                "CodingSchemeDesignator": "DCM"
              }
],
            "SoftwareVersions": "Tue Feb 12 18:07:17 EST 2019",
            "StationName": "PIERRJ03PC"
          }
],
        [
          {
            "ContributionDateTime": "20200312121538.402-0400",
            "ContributionDescription": "Cleaned",
            "Manufacturer": "PixelMed",
            "ManufacturerModelName": "DicomCleaner",
            "PurposeOfReferenceCodeSequence": [
              {
                "CodeMeaning": "De-identifying Equipment",
                "CodeValue": "109104",
                "CodingSchemeDesignator": "DCM"
              }
],
            "SoftwareVersions": "Tue Feb 12 18:07:17 EST 2019",
            "StationName": "PIERRJ03PC"
          }
],
        [
          {
            "ContributionDateTime": "20200312121538.411-0400",
            "ContributionDescription": "Cleaned",
            "Manufacturer": "PixelMed",
            "ManufacturerModelName": "DicomCleaner",
            "PurposeOfReferenceCodeSequence": [
              {
                "CodeMeaning": "De-identifying Equipment",
                "CodeValue": "109104",
                "CodingSchemeDesignator": "DCM"
              }
],
            "SoftwareVersions": "Tue Feb 12 18:07:17 EST 2019",
            "StationName": "PIERRJ03PC"
          }
]
],
      "ImagePositionPatient": [
        [-106.260759897, -99.84596301552, -36.823357457438],
        [-106.31311584211, -99.992493166888, -33.827395314493],
        [-106.36547172761, -100.13902331825, -30.831433171549],
        [-106.41782767272, -100.28555346962, -27.835471028605],
        [-106.47018361783, -100.43208362099, -24.83950888566],
        [-106.52253956294, -100.57861377236, -21.843546742716],
        [-106.57489550805, -100.72514392372, -18.847584599772],
        [-106.62725145316, -100.87167407509, -15.851623410502],
