{
  "AcquisitionMatrixPE": 72,
  "AcquisitionNumber": 1,
  "AcquisitionTime": "20:35:56.532500",
  "BaseResolution": 72,
  "BodyPartExamined": "BRAIN",
  "CoilCombinationMethod": "Sum of Squares",
  "ConsistencyInfo": "N4_VE11C_LATEST_20160120",
  "ConversionSoftware": "dcm2niix",
  "ConversionSoftwareVersion": "v1.0.20220720",
  "DeviceSerialNumber": "45219",
  "DwellTime": 2.39e-05,
  "EchoNumber": 2,
  "EchoTime": 0.00738,
  "EchoTime1": 0.00492,
  "EchoTime2": 0.00738,
  "FlipAngle": 60,
  "HeudiconvVersion": "1.1.6",
  "ImageOrientationPatientDICOM": [0.999695, 0.0192078, -0.0154959, -0.0174497, 0.994154, 0.106552],
  "ImageOrientationText": "Tra>Cor(6.1)>Sag(-1.0)",
  "ImageType": [
    "ORIGINAL",
    "PRIMARY",
    "P",
    "ND",
    "PHASE"
],
  "ImagingFrequency": 123.182,
  "InPlanePhaseEncodingDirectionDICOM": "ROW",
  "InstitutionAddress": "First Avenue 660,New York,NYC,US,10016",
  "InstitutionName": "NYU LANGONE CBI",
  "InstitutionalDepartmentName": "Department",
  "MRAcquisitionType": "2D",
  "MagneticFieldStrength": 3,
  "Manufacturer": "Siemens",
  "ManufacturersModelName": "Skyra",
  "MatrixCoilMode": "SENSE",
  "Modality": "MR",
  "NonlinearGradientCorrection": false,
  "PartialFourier": 1,
  "PatientPosition": "HFS",
  "PercentPhaseFOV": 100,
  "PercentSampling": 100,
  "PhaseEncodingDirection": "i",
  "PhaseEncodingSteps": 72,
  "PhaseResolution": 1,
  "PixelBandwidth": 290,
  "ProcedureStepDescription": "MRI BRAIN WITHOUT IV CONTRAST",
  "ProtocolName": "gre_fm_bold",
  "PulseSequenceDetails": "%SiemensSeq%\\gre_field_mapping",
  "ReceiveCoilActiveElements": "HE1-4",
  "ReceiveCoilName": "HeadNeck_20",
  "ReconMatrixPE": 72,
  "RepetitionTime": 0.444,
  "SAR": 0.215815,
  "ScanningSequence": "GR",
  "SequenceName": "*fm2d2r",
  "SequenceVariant": "SP",
  "SeriesDescription": "gre_fm_bold",
  "SeriesNumber": 5,
  "ShimSetting": [-885, -7069, 5122, 472, -194, 8, 327, -195],
  "SliceThickness": 3,
  "SliceTiming": [0.21875, 0, 0.23438, 0.01562, 0.25, 0.01562, 0.25, 0.03125, 0.26562, 0.04688, 0.28125, 0.0625, 0.29688, 0.0625, 0.29688, 0.07812, 0.3125, 0.09375, 0.32812, 0.10938, 0.32812, 0.10938, 0.34375, 0.125, 0.35938, 0.14062, 0.375, 0.15625, 0.375, 0.15625, 0.39062, 0.17188, 0.40625, 0.1875, 0.42188, 0.1875, 0.4375, 0.20312],
  "SoftwareVersions": "syngo MR E11",
  "SpacingBetweenSlices": 3,
  "StationName": "MRC45219",
  "TxRefAmp": 431.736,
  "dcmmeta_affine": [
    [-2.999086380004883, -0.05234924331307411, -0.05235600471496582, 109.0136489868164],
    [-0.057623524218797684, 2.982462167739868, 0.31874656677246094, -106.78931427001953],
    [-0.04648781940340996, -0.3196553885936737, 2.9825592041015625, -11.690547943115234],
    [0.0, 0.0, 0.0, 1.0]
],
  "dcmmeta_reorient_transform": [
    [0.0, -1.0, 0.0, 71.0],
    [1.0, 0.0, 0.0, 0.0],
    [0.0, 0.0, -1.0, 37.0],
    [0.0, 0.0, 0.0, 1.0]
],
  "dcmmeta_shape": [72, 72, 38],
  "dcmmeta_slice_dim": 2,
  "dcmmeta_version": 0.6,
  "global": {
    "const": {
      "AcquisitionMatrix": [0, 72, 72, 0],
      "AcquisitionNumber": 1,
      "AngioFlag": "N",
      "BitsAllocated": 16,
      "BitsStored": 12,
      "BodyPartExamined": "BRAIN",
      "Columns": 72,
      "CountryOfResidence": "United States of America [1]",
      "EchoNumbers": 2,
      "EchoTime": 7.38,
      "EchoTrainLength": 0,
      "FlipAngle": 60.0,
      "HighBit": 11,
      "ImageOrientationPatient": [0.99969542096162, 0.01920784110992, -0.015495939735, -0.0174497471877, 0.9941540231931, 0.1065517925333],
      "ImageType": [
        "ORIGINAL",
        "PRIMARY",
        "P",
        "ND"
],
      "ImagedNucleus": "1H",
      "ImagingFrequency": 123.181884,
      "InPlanePhaseEncodingDirection": "ROW",
      "MRAcquisitionType": "2D",
      "MagneticFieldStrength": 3.0,
      "Manufacturer": "SIEMENS",
      "ManufacturerModelName": "Skyra",
      "Modality": "MR",
      "NumberOfAverages": 1.0,
      "NumberOfPhaseEncodingSteps": 72,
      "PercentPhaseFieldOfView": 100.0,
      "PercentSampling": 100.0,
      "PerformedProcedureStepStartTime": "202745.903000",
      "PhotometricInterpretation": "MONOCHROME2",
      "PixelBandwidth": 290.0,
      "PixelRepresentation": 0,
      "PixelSpacing": [3.0, 3.0],
      "PregnancyStatus": 4,
      "ProcedureCodeSequence": [
        {
          "CodeMeaning": "MRI BRAIN WITHOUT IV CONTRAST",
          "CodeValue": "IMG269",
          "CodingSchemeDesignator": "L"
        }
],
      "ProtocolName": "gre_fm_bold",
      "RepetitionTime": 444.0,
      "RequestAttributesSequence": [
        {
          "ScheduledProcedureStepDescription": "MRI BRAIN WITHOUT IV CONTRAST",
          "ScheduledProcedureStepID": "E9621043",
          "ScheduledProtocolCodeSequence": [
            {
              "CodeMeaning": "MRI BRAIN WITHOUT IV CONTRAST",
              "CodeValue": "651061",
              "CodingSchemeDesignator": "L"
            }
]
        }
],
      "RequestedProcedureCodeSequence": [
        {
          "CodeMeaning": "MRI BRAIN WITHOUT IV CONTRAST",
          "CodeValue": "IMG269",
          "CodingSchemeDesignator": "L"
        }
],
      "RescaleIntercept": -4096.0,
      "RescaleSlope": 2.0,
      "RescaleType": "US",
      "Rows": 72,
      "SAR": 0.21581516301566,
      "SamplesPerPixel": 1,
      "ScanningSequence": "GR",
      "SequenceName": "*fm2d2r",
      "SequenceVariant": "SP",
      "SeriesDescription": "gre_fm_bold",
      "SeriesNumber": 5,
      "SeriesTime": "203700.720000",
      "SliceThickness": 3.0,
      "SmokingStatus": "UNKNOWN",
      "SoftwareVersions": "syngo MR E11",
      "SpacingBetweenSlices": 3.0,
      "SpecificCharacterSet": "ISO_IR 100",
      "StudyTime": "202745.762000",
      "TransmitCoilName": "Body",
      "VariableFlipAngleFlag": "N",
      "WindowCenterWidthExplanation": "Algo1",
      "dBdt": 0.0},
    "slices": {
      "AcquisitionTime": ["203556.532500", "203556.310000", "203556.542500", "203556.322500", "203556.555000", "203556.332500", "203556.567500", "203556.345000", "203556.577500", "203556.357500", "203556.590000", "203556.367500", "203556.602500", "203556.380000", "203556.612500", "203556.392500", "203556.625000", "203556.402500", "203556.637500", "203556.415000", "203556.647500", "203556.427500", "203556.660000", "203556.437500", "203556.672500", "203556.450000", "203556.682500", "203556.462500", "203556.695000", "203556.472500", "203556.707500", "203556.485000", "203556.717500", "203556.497500", "203556.730000", "203556.507500", "203556.742500", "203556.520000"],
      "ContentTime": ["203700.795000", "203700.723000", "203700.799000", "203700.726000", "203700.802000", "203700.728000", "203700.806000", "203700.730000", "203700.810000", "203700.743000", "203700.812000", "203700.746000", "203700.814000", "203700.748000", "203700.817000", "203700.751000", "203700.820000", "203700.765000", "203700.823000", "203700.768000", "203700.830000", "203700.770000", "203700.840000", "203700.773000", "203700.851000", "203700.776000", "203700.855000", "203700.779000", "203700.857000", "203700.783000", "203700.861000", "203700.785000", "203700.864000", "203700.787000", "203700.868000", "203700.790000", "203700.872000", "203700.792000"],
      "CsaImage.ICE_Dims": [
        "X_2_1_1_1_1_1_20_1_1_1_1_3107",
        "X_2_1_1_1_1_1_1_1_1_2_1_3107",
        "X_2_1_1_1_1_1_21_1_1_3_1_3107",
        "X_2_1_1_1_1_1_2_1_1_4_1_3107",
        "X_2_1_1_1_1_1_22_1_1_5_1_3107",
        "X_2_1_1_1_1_1_3_1_1_6_1_3107",
        "X_2_1_1_1_1_1_23_1_1_7_1_3107",
        "X_2_1_1_1_1_1_4_1_1_8_1_3107",
        "X_2_1_1_1_1_1_24_1_1_9_1_3107",
        "X_2_1_1_1_1_1_5_1_1_10_1_3107",
        "X_2_1_1_1_1_1_25_1_1_11_1_3107",
        "X_2_1_1_1_1_1_6_1_1_12_1_3107",
        "X_2_1_1_1_1_1_26_1_1_13_1_3107",
        "X_2_1_1_1_1_1_7_1_1_14_1_3107",
        "X_2_1_1_1_1_1_27_1_1_15_1_3107",
        "X_2_1_1_1_1_1_8_1_1_16_1_3107",
        "X_2_1_1_1_1_1_28_1_1_17_1_3107",
        "X_2_1_1_1_1_1_9_1_1_18_1_3107",
        "X_2_1_1_1_1_1_29_1_1_19_1_3107",
        "X_2_1_1_1_1_1_10_1_1_20_1_3107",
        "X_2_1_1_1_1_1_30_1_1_21_1_3107",
        "X_2_1_1_1_1_1_11_1_1_22_1_3107",
        "X_2_1_1_1_1_1_31_1_1_23_1_3107",
        "X_2_1_1_1_1_1_12_1_1_24_1_3107",
        "X_2_1_1_1_1_1_32_1_1_25_1_3107",
        "X_2_1_1_1_1_1_13_1_1_26_1_3107",
        "X_2_1_1_1_1_1_33_1_1_27_1_3107",
        "X_2_1_1_1_1_1_14_1_1_28_1_3107",
        "X_2_1_1_1_1_1_34_1_1_29_1_3107",
        "X_2_1_1_1_1_1_15_1_1_30_1_3107",
        "X_2_1_1_1_1_1_35_1_1_31_1_3107",
        "X_2_1_1_1_1_1_16_1_1_32_1_3107",
        "X_2_1_1_1_1_1_36_1_1_33_1_3107",
        "X_2_1_1_1_1_1_17_1_1_34_1_3107",
        "X_2_1_1_1_1_1_37_1_1_35_1_3107",
        "X_2_1_1_1_1_1_18_1_1_36_1_3107",
        "X_2_1_1_1_1_1_38_1_1_37_1_3107",
        "X_2_1_1_1_1_1_19_1_1_38_1_3107"
],
      "CsaImage.ProtocolSliceNumber": [0, 1, 2, 3, 4, 5, 6, 7, 8, 9, 10, 11, 12, 13, 14, 15, 16, 17, 18, 19, 20, 21, 22, 23, 24, 25, 26, 27, 28, 29, 30, 31, 32, 33, 34, 35, 36, 37],
      "CsaImage.SliceMeasurementDuration": [63047.5, 63047.5, 63047.5, 63047.5, 63047.5, 63047.5, 63047.5, 63047.5, 63050.0, 63047.5, 63047.5, 63047.5, 63047.5, 63047.5, 63050.0, 63047.5, 63047.5, 63047.5, 63047.5, 63047.5, 63050.0, 63047.5, 63047.5, 63047.5, 63047.5, 63047.5, 63050.0, 63047.5, 63047.5, 63047.5, 63047.5, 63047.5, 63050.0, 63047.5, 63047.5, 63047.5, 63047.5, 63047.5],
      "CsaImage.SlicePosition_PCS": [
        [-105.29684955, -104.96548363, -34.38607983],
        [-105.24449361, -105.2842302, -31.40352063],
        [-105.19213766, -105.602977, -28.42096142],
        [-105.13978172, -105.92172381, -25.43840222],
        [-105.08742577, -106.24047085, -22.45584302],
        [-105.03506983, -106.55921766, -19.47328381],
        [-104.98271394, -106.87796446, -16.49072413],
        [-104.93035794, -107.19671127, -13.50816516],
        [-104.87800205, -107.51545807, -10.52560596],
        [-104.82564605, -107.83420488, -7.54304676],
        [-104.77329016, -108.1529518, -4.56048779],
        [-104.72093416, -108.47169861, -1.57792859],
        [-104.66857827, -108.79044541, 1.40463062],
        [-104.61622227, -109.10919228, 4.38718982],
        [-104.56386638, -109.4279391, 7.36974903],
        [-104.51151038, -109.74668595, 10.35230823],
        [-104.45915449, -110.06543275, 13.33486743],
        [-104.40679849, -110.38417962, 16.31742664],
        [-104.3544426, -110.70292648, 19.29998584],
        [-104.3020866, -111.02167329, 22.28254505],
        [-104.24973071, -111.34042009, 25.26510425],
        [-104.19737471, -111.65916702, 28.24766345],
        [-104.14501882, -111.97791382, 31.23022266],
        [-104.09266282, -112.29666063, 34.21278186],
        [-104.04030693, -112.61540743, 37.19534107],
        [-103.98795093, -112.93415424, 40.17790027],
        [-103.93559492, -113.25290104, 43.16045947],
        [-103.88323915, -113.57164809, 46.14301868],
        [-103.83088315, -113.89039465, 49.12557788],
        [-103.77852714, -114.2091417, 52.10813709],
        [-103.72617114, -114.52788826, 55.09069629],
        [-103.67381537, -114.84663531, 58.0732555],
        [-103.62145937, -115.16538235, 61.0558147],
        [-103.56910336, -115.48412892, 64.0383739],
        [-103.5167476, -115.80287596, 67.02093311],
        [-103.46439159, -116.12162253, 70.00349231],
        [-103.41203559, -116.44036957, 72.98605152],
        [-103.35967958, -116.75911614, 75.96861072]
],
      "CsaImage.TimeAfterStart": [0.67, 0.4475, 0.68, 0.46, 0.6925, 0.47, 0.705, 0.4825, 0.7175, 0.495, 0.7275, 0.505, 0.74, 0.5175, 0.7525, 0.53, 0.7625, 0.54, 0.775, 0.5525, 0.7875, 0.565, 0.7975, 0.575, 0.81, 0.5875, 0.8225, 0.6, 0.8325, 0.61, 0.845, 0.6225, 0.8575, 0.635, 0.8675, 0.645, 0.88, 0.6575],
      "ImagePositionPatient": [
        [-105.29684955291, -104.96548363126, -34.386079831704],
        [-105.2444936078, -105.28423019803, -31.403520627602],
        [-105.19213766269, -105.60297700322, -28.420961423501],
        [-105.13978171758, -105.92172380841, -25.438402219399],
        [-105.08742577247, -106.24047085202, -22.455843015298],
        [-105.03506982736, -106.55921765721, -19.473283811196],
        [-104.98271394186, -106.8779644624, -16.490724130258],
        [-104.93035793714, -107.19671126759, -13.508165164575],
        [-104.87800205164, -107.51545807278, -10.525605960473],
        [-104.82564604692, -107.83420487798, -7.5430467563714],
        [-104.77329016142, -108.15295180238, -4.5604877906884],
        [-104.7209341567, -108.47169860757, -1.5779285865869],
        [-104.66857827119, -108.79044541276, 1.4046306175147],
        [-104.61622226648, -109.10919227755, 4.3871898216163],
        [-104.56386638097, -109.42793910137, 7.3697490257178],
        [-104.51151037626, -109.74668594754, 10.352308229819],
        [-104.45915449075, -110.06543275273, 13.334867433921],
        [-104.40679848604, -110.38417961753, 16.317426638023],
        [-104.35444260053, -110.70292648232, 19.299985842124],
        [-104.30208659582, -111.02167328751, 22.282545046226],
        [-104.24973071031, -111.3404200927, 25.265104250327],
        [-104.1973747056, -111.65916701711, 28.247663454429],
        [-104.14501882009, -111.9779138223, 31.23022265853],
        [-104.09266281538, -112.29666062749, 34.212781862632],
        [-104.04030692987, -112.61540743268, 37.195341066733],
        [-103.98795092516, -112.93415423787, 40.177900270835],
        [-103.93559492044, -113.25290104306, 43.160459474937],
        [-103.88323915414, -113.57164808667, 46.143018679038],
        [-103.83088314943, -113.89039465344, 49.12557788314],
        [-103.77852714471, -114.20914169705, 52.108137087241],
        [-103.72617114, -114.52788826382, 55.090696291343],
        [-103.6738153737, -114.84663530743, 58.073255495444],
        [-103.62145936899, -115.16538235104, 61.055814699546],
        [-103.56910336427, -115.48412891782, 64.038373903648],
        [-103.51674759798, -115.80287596143, 67.020933107749],
        [-103.46439159326, -116.1216225282, 70.003492311851],
        [-103.41203558855, -116.44036957181, 72.986051515952],
        [-103.35967958383, -116.75911613858, 75.968610720054]
],
      "InstanceCreationTime": ["203700.795000", "203700.723000", "203700.799000", "203700.726000", "203700.802000", "203700.728000", "203700.806000", "203700.730000", "203700.810000", "203700.743000", "203700.812000", "203700.746000", "203700.814000", "203700.748000", "203700.817000", "203700.751000", "203700.820000", "203700.765000", "203700.823000", "203700.768000", "203700.830000", "203700.770000", "203700.840000", "203700.773000", "203700.851000", "203700.776000", "203700.855000", "203700.779000", "203700.857000", "203700.783000", "203700.861000", "203700.785000", "203700.864000", "203700.787000", "203700.868000", "203700.790000", "203700.872000", "203700.792000"],
      "InstanceNumber": [1, 2, 3, 4, 5, 6, 7, 8, 9, 10, 11, 12, 13, 14, 15, 16, 17, 18, 19, 20, 21, 22, 23, 24, 25, 26, 27, 28, 29, 30, 31, 32, 33, 34, 35, 36, 37, 38],
      "LargestImagePixelValue": [4087, 4094, 4092, 4091, 4086, 4089, 4093, 4092, 4091, 4093, 4086, 4056, 4078, 4056, 4067, 4088, 4045, 4084, 4095, 4090, 4092, 4085, 4077, 4082, 4094, 4059, 4094, 4093, 4085, 4089, 4089, 4083, 4091, 4095, 4086, 4095, 4095, 4092],
      "SliceLocation": [-24.871340140873, -21.871340153408, -18.871340140611, -15.871340127815, -12.871340089687, -9.8713400768903, -6.871339591069, -3.8713398142648, -0.8713398025086, 2.1286602113281, 5.1286599987177, 8.1286600125544, 11.128660024311, 14.12866004448, 17.128660058216, 20.128660076406, 23.128660088162, 26.128660108332, 29.128660126421, 32.128660140258, 35.128660152014, 38.128660178517, 41.128660190273, 44.12866020411, 47.128660215866, 50.128660229703, 53.128660243539, 56.128660278547, 59.128660267052, 62.12866030622, 65.128660294725, 68.128660329733, 71.128660368901, 74.128660357406, 77.128660392414, 80.128660380919, 83.128660420087, 86.128660408592],
      "SmallestImagePixelValue": [0, 0, 2, 6, 4, 1, 7, 4, 5, 1, 25, 32, 19, 0, 5, 20, 18, 2, 7, 12, 19, 1, 2, 11, 29, 3, 15, 9, 1, 3, 0, 5, 3, 3, 6, 2, 0, 2],
      "WindowCenter": [-80.0, -108.0, -196.0, -198.0, -248.0, -274.0, -236.0, -378.0, -442.0, -384.0, -200.0, -322.0, -292.0, -142.0, -282.0, -116.0, -130.0, -146.0, -138.0, -94.0, -218.0, -184.0, -174.0, -208.0, -104.0, -100.0, -106.0, -162.0, -172.0, -182.0, -182.0, -188.0, -176.0, -172.0, -168.0, -190.0, -228.0, -178.0],
      "WindowWidth": [6136.0, 6068.0, 5916.0, 5856.0, 5728.0, 5440.0, 5636.0, 5116.0, 4678.0, 4618.0, 5228.0, 4626.0, 4618.0, 5372.0, 4618.0, 5360.0, 5264.0, 5154.0, 5190.0, 5224.0, 4568.0, 4540.0, 4532.0, 4554.0, 5178.0, 5144.0, 5190.0, 5252.0, 5352.0, 5460.0, 5600.0, 5608.0, 5790.0, 5892.0, 5882.0, 5952.0, 6104.0, 6116.0]
    }
  }
}