{
  "AcquisitionMatrixPE": 72,
  "AcquisitionNumber": 1,
  "AcquisitionTime": "20:40:27.917500",
  "BandwidthPerPixelPhaseEncode": 24.366,
  "BaseResolution": 72,
  "BodyPartExamined": "BRAIN",
  "CoilCombinationMethod": "Sum of Squares",
  "ConsistencyInfo": "N4_VE11C_LATEST_20160120",
  "ConversionSoftware": "dcm2niix",
  "ConversionSoftwareVersion": "v1.0.20220720",
  "DerivedVendorReportedEchoSpacing": 0.000570011,
  "DeviceSerialNumber": "45219",
  "DwellTime": 3.5e-06,
  "EchoTime": 0.03,
  "EchoTrainLength": 72,
  "EffectiveEchoSpacing": 0.000570011,
  "FlipAngle": 80,
  "HeudiconvVersion": "1.1.6",
  "ImageComments": "Reference volume for motion correction.",
  "ImageOrientationPatientDICOM": [1, 0, 0, 0, 0.995562, 0.0941083],
  "ImageOrientationText": "Tra>Cor(5.4)",
  "ImageType": [
    "ORIGINAL",
    "PRIMARY",
    "M",
    "ND",
    "NORM",
    "MOCO",
    "MOSAIC"
],
  "ImagingFrequency": 123.182,
  "InPlanePhaseEncodingDirectionDICOM": "COL",
  "InstitutionAddress": "First Avenue 660,New York,NYC,US,10016",
  "InstitutionName": "NYU LANGONE CBI",
  "InstitutionalDepartmentName": "Department",
  "MRAcquisitionType": "2D",
  "MagneticFieldStrength": 3,
  "Manufacturer": "Siemens",
  "ManufacturersModelName": "Skyra",
  "MatrixCoilMode": "SENSE",
  "Modality": "MR",
  "NonlinearGradientCorrection": false,
  "PartialFourier": 1,
  "PatientPosition": "HFS",
  "PercentPhaseFOV": 100,
  "PercentSampling": 100,
  "PhaseEncodingDirection": "j-",
  "PhaseEncodingSteps": 72,
  "PhaseResolution": 1,
  "PixelBandwidth": 1985,
  "ProcedureStepDescription": "MRI BRAIN WITHOUT IV CONTRAST",
  "ProtocolName": "TASK_AB_MoCo",
  "PulseSequenceDetails": "%SiemensSeq%\\ep2d_bold",
  "ReceiveCoilActiveElements": "HE1-4",
  "ReceiveCoilName": "HeadNeck_20",
  "ReconMatrixPE": 72,
  "RepetitionTime": 2.5,
  "SAR": 0.10913,
  "ScanOptions": "FS",
  "ScanningSequence": "EP",
  "SequenceName": "*epfid2d1_72",
  "SequenceVariant": "SK",
  "SeriesDescription": "MoCoSeries",
  "SeriesNumber": 11,
  "ShimSetting": [-903, -7025, 5036, 239, -206, 418, 502, -213],
  "SliceThickness": 3,
  "SliceTiming": [1.24, 0, 1.305, 0.065, 1.37, 0.13, 1.435, 0.195, 1.5, 0.26, 1.565, 0.325, 1.63, 0.39, 1.6975, 0.4575, 1.7625, 0.5225, 1.8275, 0.5875, 1.8925, 0.6525, 1.9575, 0.7175, 2.0225, 0.7825, 2.0875, 0.8475, 2.1525, 0.9125, 2.2175, 0.9775, 2.2825, 1.0425, 2.35, 1.11, 2.415, 1.175],
  "SoftwareVersions": "syngo MR E11",
  "SpacingBetweenSlices": 3,
  "StationName": "MRC45219",
  "TaskName": "ab",
  "TotalReadoutTime": 0.0404708,
  "TxRefAmp": 406.508,
  "dcmmeta_affine": [
    [-3.0, 0.0, 0.0, 108.0],
    [0.0, 2.9866859912872314, 0.28232496976852417, -112.11309814453125],
    [0.0, -0.28232496976852417, 2.9866859912872314, -30.659881591796875],
    [0.0, 0.0, 0.0, 1.0]
],
  "dcmmeta_reorient_transform": [
    [0.0, -1.0, 0.0, 71.0],
    [1.0, 0.0, 0.0, 0.0],
    [0.0, 0.0, 1.0, 0.0],
    [0.0, 0.0, 0.0, 1.0]
],
  "dcmmeta_shape": [72, 72, 38, 132],
  "dcmmeta_slice_dim": 2,
  "dcmmeta_version": 0.6,
  "global": {
    "const": {
      "AcquisitionMatrix": [72, 0, 0, 72],
      "AngioFlag": "N",
      "BitsAllocated": 16,
      "BitsStored": 12,
      "BodyPartExamined": "BRAIN",
      "Columns": 504,
      "CountryOfResidence": "United States of America [1]",
      "EchoNumbers": 1,
      "EchoTime": 30.0,
      "EchoTrainLength": 72,
      "FlipAngle": 80.0,
      "HighBit": 11,
      "ImageOrientationPatient": [1.0, 0.0, 0.0, 0.0, 0.99556196389853, 0.09410832077188],
      "ImagePositionPatient": [-756.0, -745.06575458888, -111.68714645447],
      "ImageType": [
        "ORIGINAL",
        "PRIMARY",
        "M",
        "ND",
        "NORM",
        "MOCO",
        "MOSAIC"
],
      "ImagedNucleus": "1H",
      "ImagingFrequency": 123.182218,
      "InPlanePhaseEncodingDirection": "COL",
      "MRAcquisitionType": "2D",
      "MagneticFieldStrength": 3.0,
      "Manufacturer": "SIEMENS",
      "ManufacturerModelName": "Skyra",
      "Modality": "MR",
      "NumberOfAverages": 1.0,
      "NumberOfPhaseEncodingSteps": 72,
      "PercentPhaseFieldOfView": 100.0,
      "PercentSampling": 100.0,
      "PerformedProcedureStepStartTime": "201929.639000",
      "PhotometricInterpretation": "MONOCHROME2",
      "PixelBandwidth": 1985.0,
      "PixelRepresentation": 0,
      "PixelSpacing": [3.0, 3.0],
      "PregnancyStatus": 4,
      "ProcedureCodeSequence": [
        {
          "CodeMeaning": "MRI BRAIN WITHOUT IV CONTRAST",
          "CodeValue": "IMG269",
          "CodingSchemeDesignator": "L"
        }
],
      "ProtocolName": "TASK_AB",
      "RepetitionTime": 2500.0,
      "RequestAttributesSequence": [
        {
          "RequestedProcedureID": "293873043",
          "ScheduledProcedureStepDescription": "MRI BRAIN WITHOUT IV CONTRAST",
          "ScheduledProcedureStepID": "E9004129",
          "ScheduledProtocolCodeSequence": [
            {
              "CodeMeaning": "MRI BRAIN WITHOUT IV CONTRAST",
              "CodeValue": "651061",
              "CodingSchemeDesignator": "L"
            }
]
        }
],
      "RequestedProcedureCodeSequence": [
        {
          "CodeMeaning": "MRI BRAIN WITHOUT IV CONTRAST",
          "CodeValue": "IMG269",
          "CodingSchemeDesignator": "L"
        }
],
      "Rows": 504,
      "SAR": 0.10913005523076,
      "SamplesPerPixel": 1,
      "ScanOptions": "FS",
      "ScanningSequence": "EP",
      "SequenceName": "*epfid2d1_72",
      "SequenceVariant": "SK",
      "SeriesDescription": "MoCoSeries",
      "SeriesNumber": 11,
      "SeriesTime": "204058.053000",
      "SliceLocation": -41.074587837441,
      "SliceThickness": 3.0,
      "SmallestImagePixelValue": 0,
      "SmokingStatus": "UNKNOWN",
      "SoftwareVersions": "syngo MR E11",
      "SpacingBetweenSlices": 3.0000000905554,
      "SpecificCharacterSet": "ISO_IR 100",
      "StudyID": "293873043",
      "StudyTime": "201929.485000",
      "TransmitCoilName": "Body",
      "VariableFlipAngleFlag": "N",
      "WindowCenterWidthExplanation": "Algo1",
      "dBdt": 0.0},
    "slices": {}
  },
  "time": {
    "samples": {
      "AcquisitionNumber": [1, 2, 3, 4, 5, 6, 7, 8, 9, 10, 11, 12, 13, 14, 15, 16, 17, 18, 19, 20, 21, 22, 23, 24, 25, 26, 27, 28, 29, 30, 31, 32, 33, 34, 35, 36, 37, 38, 39, 40, 41, 42, 43, 44, 45, 46, 47, 48, 49, 50, 51, 52, 53, 54, 55, 56, 57, 58, 59, 60, 61, 62, 63, 64, 65, 66, 67, 68, 69, 70, 71, 72, 73, 74, 75, 76, 77, 78, 79, 80, 81, 82, 83, 84, 85, 86, 87, 88, 89, 90, 91, 92, 93, 94, 95, 96, 97, 98, 99, 100, 101, 102, 103, 104, 105, 106, 107, 108, 109, 110, 111, 112, 113, 114, 115, 116, 117, 118, 119, 120, 121, 122, 123, 124, 125, 126, 127, 128, 129, 130, 131, 132],
      "AcquisitionTime": ["204027.917500", "204030.417500", "204032.917500", "204035.417500", "204037.917500", "204040.417500", "204042.917500", "204045.417500", "204047.917500", "204050.417500", "204052.917500", "204055.417500", "204057.917500", "204100.417500", "204102.917500", "204105.417500", "204107.917500", "204110.417500", "204112.917500", "204115.417500", "204117.917500", "204120.417500", "204122.917500", "204125.417500", "204127.917500", "204130.417500", "204132.917500", "204135.417500", "204137.917500", "204140.417500", "204142.917500", "204145.417500", "204147.917500", "204150.417500", "204152.917500", "204155.417500", "204157.917500", "204200.417500", "204202.917500", "204205.417500", "204207.917500", "204210.417500", "204212.917500", "204215.417500", "204217.917500", "204220.417500", "204222.917500", "204225.417500", "204227.917500", "204230.417500", "204232.917500", "204235.417500", "204237.917500", "204240.417500", "204242.917500", "204245.417500", "204247.917500", "204250.417500", "204252.917500", "204255.417500", "204257.917500", "204300.417500", "204302.917500", "204305.417500", "204307.917500", "204310.417500", "204312.917500", "204315.417500", "204317.917500", "204320.417500", "204322.917500", "204325.417500", "204327.917500", "204330.417500", "204332.917500", "204335.417500", "204337.917500", "204340.417500", "204342.917500", "204345.417500", "204347.917500", "204350.417500", "204352.917500", "204355.417500", "204357.917500", "204400.417500", "204402.917500", "204405.417500", "204407.917500", "204410.417500", "204412.917500", "204415.417500", "204417.917500", "204420.417500", "204422.917500", "204425.417500", "204427.917500", "204430.417500", "204432.917500", "204435.417500", "204437.917500", "204440.417500", "204442.917500", "204445.417500", "204447.917500", "204450.417500", "204452.917500", "204455.417500", "204457.917500", "204500.417500", "204502.917500", "204505.417500", "204507.917500", "204510.417500", "204512.917500", "204515.417500", "204517.917500", "204520.417500", "204522.917500", "204525.417500", "204527.917500", "204530.417500", "204532.917500", "204535.417500", "204537.917500", "204540.417500", "204542.917500", "204545.417500", "204547.917500", "204550.417500", "204552.917500", "204555.417500"],
      "ContentTime": ["204058.055000", "204058.058000", "204058.061000", "204058.064000", "204058.067000", "204058.071000", "204058.074000", "204058.077000", "204058.079000", "204058.082000", "204058.085000", "204058.088000", "204158.112000", "204158.115000", "204158.118000", "204158.120000", "204158.123000", "204158.126000", "204158.129000", "204158.131000", "204158.134000", "204158.139000", "204158.142000", "204158.144000", "204158.147000", "204158.150000", "204158.153000", "204158.155000", "204158.158000", "204158.161000", "204158.164000", "204158.166000", "204158.169000", "204158.172000", "204158.175000", "204158.177000", "204258.100000", "204258.103000", "204258.106000", "204258.108000", "204258.111000", "204258.114000", "204258.117000", "204258.119000", "204258.122000", "204258.125000", "204258.128000", "204258.130000", "204258.133000", "204258.136000", "204258.139000", "204258.141000", "204258.144000", "204258.147000", "204258.150000", "204258.152000", "204258.155000", "204258.158000", "204258.161000", "204258.163000", "204358.093000", "204358.096000", "204358.099000", "204358.101000", "204358.104000", "204358.107000", "204358.110000", "204358.112000", "204358.115000", "204358.118000", "204358.121000", "204358.123000", "204358.126000", "204358.129000", "204358.132000", "204358.134000", "204358.137000", "204358.140000", "204358.143000", "204358.145000", "204358.148000", "204358.151000", "204358.154000", "204358.156000", "204458.087000", "204458.090000", "204458.092000", "204458.095000", "204458.098000", "204458.107000", "204458.110000", "204458.113000", "204458.115000", "204458.118000", "204458.121000", "204458.124000", "204458.127000", "204458.130000", "204458.132000", "204458.135000", "204458.138000", "204458.141000", "204458.143000", "204458.146000", "204458.149000", "204458.152000", "204458.154000", "204458.157000", "204557.565000", "204557.569000", "204557.572000", "204557.575000", "204557.578000", "204557.581000", "204557.584000", "204557.586000", "204557.589000", "204557.592000", "204557.595000", "204557.598000", "204557.605000", "204557.609000", "204557.611000", "204557.614000", "204557.618000", "204557.622000", "204557.626000", "204557.629000", "204557.632000", "204557.635000", "204557.638000", "204557.642000"],
      "InstanceCreationTime": ["204058.055000", "204058.058000", "204058.061000", "204058.064000", "204058.067000", "204058.071000", "204058.074000", "204058.077000", "204058.079000", "204058.082000", "204058.085000", "204058.088000", "204158.112000", "204158.115000", "204158.118000", "204158.120000", "204158.123000", "204158.126000", "204158.129000", "204158.131000", "204158.134000", "204158.139000", "204158.142000", "204158.144000", "204158.147000", "204158.150000", "204158.153000", "204158.155000", "204158.158000", "204158.161000", "204158.164000", "204158.166000", "204158.169000", "204158.172000", "204158.175000", "204158.177000", "204258.100000", "204258.103000", "204258.106000", "204258.108000", "204258.111000", "204258.114000", "204258.117000", "204258.119000", "204258.122000", "204258.125000", "204258.128000", "204258.130000", "204258.133000", "204258.136000", "204258.139000", "204258.141000", "204258.144000", "204258.147000", "204258.150000", "204258.152000", "204258.155000", "204258.158000", "204258.161000", "204258.163000", "204358.093000", "204358.096000", "204358.099000", "204358.101000", "204358.104000", "204358.107000", "204358.110000", "204358.112000", "204358.115000", "204358.118000", "204358.121000", "204358.123000", "204358.126000", "204358.129000", "204358.132000", "204358.134000", "204358.137000", "204358.140000", "204358.143000", "204358.145000", "204358.148000", "204358.151000", "204358.154000", "204358.156000", "204458.087000", "204458.090000", "204458.092000", "204458.095000", "204458.098000", "204458.107000", "204458.110000", "204458.113000", "204458.115000", "204458.118000", "204458.121000", "204458.124000", "204458.127000", "204458.130000", "204458.132000", "204458.135000", "204458.138000", "204458.141000", "204458.143000", "204458.146000", "204458.149000", "204458.152000", "204458.154000", "204458.157000", "204557.565000", "204557.569000", "204557.572000", "204557.575000", "204557.578000", "204557.581000", "204557.584000", "204557.586000", "204557.589000", "204557.592000", "204557.595000", "204557.598000", "204557.605000", "204557.609000", "204557.611000", "204557.614000", "204557.618000", "204557.622000", "204557.626000", "204557.629000", "204557.632000", "204557.635000", "204557.638000", "204557.642000"],
      "InstanceNumber": [1, 2, 3, 4, 5, 6, 7, 8, 9, 10, 11, 12, 13, 14, 15, 16, 17, 18, 19, 20, 21, 22, 23, 24, 25, 26, 27, 28, 29, 30, 31, 32, 33, 34, 35, 36, 37, 38, 39, 40, 41, 42, 43, 44, 45, 46, 47, 48, 49, 50, 51, 52, 53, 54, 55, 56, 57, 58, 59, 60, 61, 62, 63, 64, 65, 66, 67, 68, 69, 70, 71, 72, 73, 74, 75, 76, 77, 78, 79, 80, 81, 82, 83, 84, 85, 86, 87, 88, 89, 90, 91, 92, 93, 94, 95, 96, 97, 98, 99, 100, 101, 102, 103, 104, 105, 106, 107, 108, 109, 110, 111, 112, 113, 114, 115, 116, 117, 118, 119, 120, 121, 122, 123, 124, 125, 126, 127, 128, 129, 130, 131, 132],
      "LargestImagePixelValue": [1766, 1812, 1665, 1665, 1661, 1659, 1659, 1658, 1671, 1756, 1719, 1668, 1668, 1669, 1661, 1677, 1671, 1662, 1678, 1746, 1684, 1690, 1664, 1668, 1664, 1665, 1673, 1672, 1673, 1665, 1661, 1659, 1714, 1707, 1673, 1732, 1688, 1658, 1661, 1661, 1658, 1659, 1683, 1673, 1667, 1661, 1737, 1844, 1734, 1672, 1716, 1670, 1657, 1660, 1663, 1658, 1692, 1673, 1723, 1742, 1683, 1666, 1668, 1792, 1852, 1655, 1661, 1704, 1684, 1726, 1673, 1661, 1657, 1692, 1664, 1657, 1653, 1667, 1656, 1661, 1755, 1665, 1706, 1679, 1682, 1664, 1667, 1677, 1671, 1668, 1661, 1672, 1666, 1664, 1666, 1671, 1666, 1700, 1696, 1677, 1674, 1673, 1676, 1681, 1677, 1720, 1725, 1706, 1723, 1721, 1661, 1662, 1671, 1676, 1670, 1663, 1656, 1657, 1749, 1732, 1664, 1663, 1675, 1709, 1694, 1660, 1692, 1682, 1714, 1667, 1668, 1721],
      "WindowCenter": [666.0, 664.0, 662.0, 662.0, 663.0, 663.0, 663.0, 663.0, 663.0, 664.0, 664.0, 663.0, 664.0, 664.0, 664.0, 664.0, 664.0, 664.0, 664.0, 664.0, 663.0, 663.0, 663.0, 663.0, 663.0, 663.0, 663.0, 663.0, 663.0, 663.0, 662.0, 662.0, 663.0, 663.0, 663.0, 664.0, 663.0, 664.0, 664.0, 664.0, 664.0, 664.0, 664.0, 664.0, 664.0, 663.0, 664.0, 663.0, 662.0, 662.0, 663.0, 663.0, 663.0, 663.0, 663.0, 664.0, 664.0, 664.0, 664.0, 665.0, 663.0, 662.0, 662.0, 663.0, 664.0, 662.0, 662.0, 663.0, 662.0, 663.0, 663.0, 663.0, 663.0, 663.0, 662.0, 663.0, 664.0, 664.0, 664.0, 664.0, 665.0, 664.0, 663.0, 662.0, 662.0, 662.0, 662.0, 663.0, 662.0, 662.0, 663.0, 663.0, 663.0, 663.0, 664.0, 664.0, 663.0, 663.0, 662.0, 662.0, 663.0, 663.0, 663.0, 663.0, 663.0, 664.0, 664.0, 663.0, 663.0, 663.0, 662.0, 661.0, 662.0, 662.0, 662.0, 662.0, 663.0, 663.0, 664.0, 663.0, 662.0, 663.0, 662.0, 662.0, 663.0, 663.0, 663.0, 663.0, 663.0, 662.0, 662.0, 663.0],
      "WindowWidth": [1423.0, 1417.0, 1413.0, 1413.0, 1414.0, 1414.0, 1414.0, 1414.0, 1415.0, 1418.0, 1416.0, 1415.0, 1416.0, 1416.0, 1416.0, 1417.0, 1417.0, 1417.0, 1416.0, 1416.0, 1415.0, 1415.0, 1415.0, 1414.0, 1414.0, 1415.0, 1415.0, 1415.0, 1415.0, 1414.0, 1413.0, 1413.0, 1415.0, 1416.0, 1415.0, 1416.0, 1416.0, 1416.0, 1417.0, 1417.0, 1416.0, 1417.0, 1418.0, 1417.0, 1416.0, 1415.0, 1416.0, 1415.0, 1413.0, 1413.0, 1414.0, 1415.0, 1414.0, 1414.0, 1415.0, 1416.0, 1417.0, 1417.0, 1418.0, 1418.0, 1416.0, 1413.0, 1413.0, 1416.0, 1417.0, 1413.0, 1412.0, 1413.0, 1413.0, 1415.0, 1414.0, 1414.0, 1415.0, 1415.0, 1412.0, 1414.0, 1416.0, 1416.0, 1416.0, 1417.0, 1419.0, 1417.0, 1416.0, 1412.0, 1412.0, 1413.0, 1413.0, 1414.0, 1413.0, 1413.0, 1414.0, 1415.0, 1415.0, 1414.0, 1416.0, 1417.0, 1415.0, 1414.0, 1412.0, 1413.0, 1414.0, 1415.0, 1415.0, 1415.0, 1415.0, 1416.0, 1416.0, 1415.0, 1415.0, 1415.0, 1413.0, 1411.0, 1411.0, 1412.0, 1413.0, 1413.0, 1415.0, 1416.0, 1417.0, 1416.0, 1413.0, 1414.0, 1413.0, 1414.0, 1414.0, 1415.0, 1416.0, 1416.0, 1415.0, 1413.0, 1413.0, 1415.0]
    },
    "slices": {}
  }
}