{
  "AcquisitionMatrixPE": 72,
  "AcquisitionNumber": 1,
  "AcquisitionTime": "20:34:40.110000",
  "BandwidthPerPixelPhaseEncode": 24.366,
  "BaseResolution": 72,
  "BodyPartExamined": "BRAIN",
  "CoilCombinationMethod": "Sum of Squares",
  "ConsistencyInfo": "N4_VE11C_LATEST_20160120",
  "ConversionSoftware": "dcm2niix",
  "ConversionSoftwareVersion": "v1.0.20220720",
  "DerivedVendorReportedEchoSpacing": 0.000570011,
  "DeviceSerialNumber": "45219",
  "DwellTime": 3.5e-06,
  "EchoTime": 0.03,
  "EchoTrainLength": 72,
  "EffectiveEchoSpacing": 0.000570011,
  "FlipAngle": 80,
  "HeudiconvVersion": "1.1.6",
  "ImageOrientationPatientDICOM": [1, 0, 0, 0, 0.995562, 0.0941083],
  "ImageOrientationText": "Tra>Cor(5.4)",
  "ImageType": [
    "ORIGINAL",
    "PRIMARY",
    "M",
    "ND",
    "NORM",
    "MOSAIC"
],
  "ImagingFrequency": 123.182,
  "InPlanePhaseEncodingDirectionDICOM": "COL",
  "InstitutionAddress": "First Avenue 660,New York,NYC,US,10016",
  "InstitutionName": "NYU LANGONE CBI",
  "InstitutionalDepartmentName": "Department",
  "MRAcquisitionType": "2D",
  "MagneticFieldStrength": 3,
  "Manufacturer": "Siemens",
  "ManufacturersModelName": "Skyra",
  "MatrixCoilMode": "SENSE",
  "Modality": "MR",
  "NonlinearGradientCorrection": false,
  "PartialFourier": 1,
  "PatientPosition": "HFS",
  "PercentPhaseFOV": 100,
  "PercentSampling": 100,
  "PhaseEncodingDirection": "j-",
  "PhaseEncodingSteps": 72,
  "PhaseResolution": 1,
  "PixelBandwidth": 1985,
  "ProcedureStepDescription": "MRI BRAIN WITHOUT IV CONTRAST",
  "ProtocolName": "REST_2",
  "PulseSequenceDetails": "%SiemensSeq%\\ep2d_bold",
  "ReceiveCoilActiveElements": "HE1-4",
  "ReceiveCoilName": "HeadNeck_20",
  "ReconMatrixPE": 72,
  "RepetitionTime": 2.5,
  "SAR": 0.109091,
  "ScanOptions": "FS",
  "ScanningSequence": "EP",
  "SequenceName": "*epfid2d1_72",
  "SequenceVariant": "SK",
  "SeriesDescription": "REST_2",
  "SeriesNumber": 8,
  "ShimSetting": [-903, -7025, 5036, 239, -206, 418, 502, -213],
  "SliceThickness": 3,
  "SliceTiming": [1.24, 0, 1.305, 0.065, 1.37, 0.13, 1.435, 0.195, 1.5, 0.26, 1.565, 0.325, 1.63, 0.39, 1.6975, 0.4575, 1.7625, 0.5225, 1.8275, 0.5875, 1.8925, 0.6525, 1.9575, 0.7175, 2.0225, 0.7825, 2.0875, 0.8475, 2.1525, 0.9125, 2.2175, 0.9775, 2.2825, 1.0425, 2.35, 1.11, 2.415, 1.175],
  "SoftwareVersions": "syngo MR E11",
  "SpacingBetweenSlices": 3,
  "StationName": "MRC45219",
  "TaskName": "rest",
  "TotalReadoutTime": 0.0404708,
  "TxRefAmp": 406.508,
  "dcmmeta_affine": [
    [-3.0, 0.0, 0.0, 108.0],
    [0.0, 2.9866859912872314, 0.28232496976852417, -112.11309814453125],
    [0.0, -0.28232496976852417, 2.9866859912872314, -30.659881591796875],
    [0.0, 0.0, 0.0, 1.0]
],
  "dcmmeta_reorient_transform": [
    [0.0, -1.0, 0.0, 71.0],
    [1.0, 0.0, 0.0, 0.0],
    [0.0, 0.0, 1.0, 0.0],
    [0.0, 0.0, 0.0, 1.0]
],
  "dcmmeta_shape": [72, 72, 38, 122],
  "dcmmeta_slice_dim": 2,
  "dcmmeta_version": 0.6,
  "global": {
    "const": {
      "AcquisitionMatrix": [72, 0, 0, 72],
      "AngioFlag": "N",
      "BitsAllocated": 16,
      "BitsStored": 12,
      "BodyPartExamined": "BRAIN",
      "Columns": 504,
      "CountryOfResidence": "United States of America [1]",
      "EchoNumbers": 1,
      "EchoTime": 30.0,
      "EchoTrainLength": 72,
      "FlipAngle": 80.0,
      "HighBit": 11,
      "ImageOrientationPatient": [1.0, 0.0, 0.0, 0.0, 0.99556196389853, 0.09410832077188],
      "ImagePositionPatient": [-756.0, -745.06575458888, -111.68714645447],
      "ImageType": [
        "ORIGINAL",
        "PRIMARY",
        "M",
        "ND",
        "NORM",
        "MOSAIC"
],
      "ImagedNucleus": "1H",
      "ImagingFrequency": 123.182185,
      "InPlanePhaseEncodingDirection": "COL",
      "MRAcquisitionType": "2D",
      "MagneticFieldStrength": 3.0,
      "Manufacturer": "SIEMENS",
      "ManufacturerModelName": "Skyra",
      "Modality": "MR",
      "NumberOfAverages": 1.0,
      "NumberOfPhaseEncodingSteps": 72,
      "PercentPhaseFieldOfView": 100.0,
      "PercentSampling": 100.0,
      "PerformedProcedureStepStartTime": "201929.639000",
      "PhotometricInterpretation": "MONOCHROME2",
      "PixelBandwidth": 1985.0,
      "PixelRepresentation": 0,
      "PixelSpacing": [3.0, 3.0],
      "PregnancyStatus": 4,
      "ProcedureCodeSequence": [
        {
          "CodeMeaning": "MRI BRAIN WITHOUT IV CONTRAST",
          "CodeValue": "IMG269",
          "CodingSchemeDesignator": "L"
        }
],
      "ProtocolName": "REST_2",
      "RepetitionTime": 2500.0,
      "RequestAttributesSequence": [
        {
          "RequestedProcedureID": "293873043",
          "ScheduledProcedureStepDescription": "MRI BRAIN WITHOUT IV CONTRAST",
          "ScheduledProcedureStepID": "E9004129",
          "ScheduledProtocolCodeSequence": [
            {
              "CodeMeaning": "MRI BRAIN WITHOUT IV CONTRAST",
              "CodeValue": "651061",
              "CodingSchemeDesignator": "L"
            }
]
        }
],
      "RequestedProcedureCodeSequence": [
        {
          "CodeMeaning": "MRI BRAIN WITHOUT IV CONTRAST",
          "CodeValue": "IMG269",
          "CodingSchemeDesignator": "L"
        }
],
      "Rows": 504,
      "SAR": 0.10909083894343,
      "SamplesPerPixel": 1,
      "ScanOptions": "FS",
      "ScanningSequence": "EP",
      "SequenceName": "*epfid2d1_72",
      "SequenceVariant": "SK",
      "SeriesDescription": "REST_2",
      "SeriesNumber": 8,
      "SeriesTime": "203545.432000",
      "SliceLocation": -41.074587837441,
      "SliceThickness": 3.0,
      "SmallestImagePixelValue": 0,
      "SmokingStatus": "UNKNOWN",
      "SoftwareVersions": "syngo MR E11",
      "SpacingBetweenSlices": 3.0000000905554,
      "SpecificCharacterSet": "ISO_IR 100",
      "StudyID": "293873043",
      "StudyTime": "201929.485000",
      "TransmitCoilName": "Body",
      "VariableFlipAngleFlag": "N",
      "WindowCenterWidthExplanation": "Algo1",
      "dBdt": 0.0},
    "slices": {}
  },
  "time": {
    "samples": {
      "AcquisitionNumber": [1, 2, 3, 4, 5, 6, 7, 8, 9, 10, 11, 12, 13, 14, 15, 16, 17, 18, 19, 20, 21, 22, 23, 24, 25, 26, 27, 28, 29, 30, 31, 32, 33, 34, 35, 36, 37, 38, 39, 40, 41, 42, 43, 44, 45, 46, 47, 48, 49, 50, 51, 52, 53, 54, 55, 56, 57, 58, 59, 60, 61, 62, 63, 64, 65, 66, 67, 68, 69, 70, 71, 72, 73, 74, 75, 76, 77, 78, 79, 80, 81, 82, 83, 84, 85, 86, 87, 88, 89, 90, 91, 92, 93, 94, 95, 96, 97, 98, 99, 100, 101, 102, 103, 104, 105, 106, 107, 108, 109, 110, 111, 112, 113, 114, 115, 116, 117, 118, 119, 120, 121, 122],
      "AcquisitionTime": ["203440.110000", "203442.610000", "203445.110000", "203447.610000", "203450.110000", "203452.610000", "203455.110000", "203457.610000", "203500.110000", "203502.610000", "203505.110000", "203507.610000", "203510.110000", "203512.610000", "203515.110000", "203517.610000", "203520.110000", "203522.610000", "203525.110000", "203527.610000", "203530.110000", "203532.610000", "203535.110000", "203537.610000", "203540.110000", "203542.610000", "203545.110000", "203547.610000", "203550.110000", "203552.610000", "203555.110000", "203557.610000", "203600.110000", "203602.610000", "203605.110000", "203607.610000", "203610.110000", "203612.610000", "203615.110000", "203617.610000", "203620.110000", "203622.610000", "203625.110000", "203627.610000", "203630.110000", "203632.610000", "203635.110000", "203637.610000", "203640.110000", "203642.610000", "203645.110000", "203647.610000", "203650.110000", "203652.610000", "203655.110000", "203657.610000", "203700.110000", "203702.610000", "203705.110000", "203707.610000", "203710.110000", "203712.610000", "203715.110000", "203717.610000", "203720.110000", "203722.610000", "203725.110000", "203727.610000", "203730.110000", "203732.610000", "203735.110000", "203737.610000", "203740.110000", "203742.610000", "203745.110000", "203747.610000", "203750.110000", "203752.610000", "203755.110000", "203757.610000", "203800.110000", "203802.610000", "203805.110000", "203807.610000", "203810.110000", "203812.610000", "203815.110000", "203817.610000", "203820.110000", "203822.610000", "203825.110000", "203827.610000", "203830.110000", "203832.610000", "203835.110000", "203837.610000", "203840.110000", "203842.610000", "203845.110000", "203847.610000", "203850.110000", "203852.610000", "203855.110000", "203857.610000", "203900.110000", "203902.610000", "203905.110000", "203907.610000", "203910.110000", "203912.610000", "203915.110000", "203917.610000", "203920.110000", "203922.610000", "203925.110000", "203927.610000", "203930.110000", "203932.610000", "203935.110000", "203937.610000", "203940.110000", "203942.610000"],
      "ContentTime": ["203545.435000", "203545.439000", "203545.442000", "203545.445000", "203545.447000", "203545.450000", "203545.453000", "203545.455000", "203545.458000", "203545.461000", "203545.464000", "203545.466000", "203545.469000", "203545.471000", "203545.474000", "203545.477000", "203545.480000", "203545.482000", "203545.498000", "203545.501000", "203545.503000", "203545.506000", "203545.509000", "203545.511000", "203545.514000", "203545.516000", "203645.431000", "203645.434000", "203645.437000", "203645.439000", "203645.442000", "203645.445000", "203645.447000", "203645.450000", "203645.453000", "203645.455000", "203645.458000", "203645.461000", "203645.463000", "203645.466000", "203645.469000", "203645.471000", "203645.474000", "203645.477000", "203645.486000", "203645.488000", "203645.491000", "203645.494000", "203645.496000", "203645.499000", "203745.430000", "203745.432000", "203745.443000", "203745.445000", "203745.448000", "203745.451000", "203745.454000", "203745.456000", "203745.459000", "203745.462000", "203745.464000", "203745.467000", "203745.470000", "203745.472000", "203745.475000", "203745.478000", "203745.480000", "203745.483000", "203745.486000", "203745.488000", "203745.491000", "203745.494000", "203745.496000", "203745.499000", "203845.430000", "203845.433000", "203845.435000", "203845.438000", "203845.441000", "203845.443000", "203845.446000", "203845.449000", "203845.451000", "203845.454000", "203845.457000", "203845.459000", "203845.462000", "203845.465000", "203845.467000", "203845.470000", "203845.473000", "203845.476000", "203845.478000", "203845.481000", "203845.484000", "203845.486000", "203845.489000", "203845.491000", "203944.829000", "203944.832000", "203944.835000", "203944.837000", "203944.846000", "203944.848000", "203944.851000", "203944.853000", "203944.856000", "203944.859000", "203944.863000", "203944.868000", "203944.873000", "203944.875000", "203944.878000", "203944.881000", "203944.885000", "203944.888000", "203944.891000", "203944.895000", "203944.898000", "203944.901000", "203944.904000", "203944.907000"],
      "InstanceCreationTime": ["203545.435000", "203545.439000", "203545.442000", "203545.445000", "203545.447000", "203545.450000", "203545.453000", "203545.455000", "203545.458000", "203545.461000", "203545.464000", "203545.466000", "203545.469000", "203545.471000", "203545.474000", "203545.477000", "203545.480000", "203545.482000", "203545.498000", "203545.501000", "203545.503000", "203545.506000", "203545.509000", "203545.511000", "203545.514000", "203545.516000", "203645.431000", "203645.434000", "203645.437000", "203645.439000", "203645.442000", "203645.445000", "203645.447000", "203645.450000", "203645.453000", "203645.455000", "203645.458000", "203645.461000", "203645.463000", "203645.466000", "203645.469000", "203645.471000", "203645.474000", "203645.477000", "203645.486000", "203645.488000", "203645.491000", "203645.494000", "203645.496000", "203645.499000", "203745.430000", "203745.432000", "203745.443000", "203745.445000", "203745.448000", "203745.451000", "203745.454000", "203745.456000", "203745.459000", "203745.462000", "203745.464000", "203745.467000", "203745.470000", "203745.472000", "203745.475000", "203745.478000", "203745.480000", "203745.483000", "203745.486000", "203745.488000", "203745.491000", "203745.494000", "203745.496000", "203745.499000", "203845.430000", "203845.433000", "203845.435000", "203845.438000", "203845.441000", "203845.443000", "203845.446000", "203845.449000", "203845.451000", "203845.454000", "203845.457000", "203845.459000", "203845.462000", "203845.465000", "203845.467000", "203845.470000", "203845.473000", "203845.476000", "203845.478000", "203845.481000", "203845.484000", "203845.486000", "203845.489000", "203845.491000", "203944.829000", "203944.832000", "203944.835000", "203944.837000", "203944.846000", "203944.848000", "203944.851000", "203944.853000", "203944.856000", "203944.859000", "203944.863000", "203944.868000", "203944.873000", "203944.875000", "203944.878000", "203944.881000", "203944.885000", "203944.888000", "203944.891000", "203944.895000", "203944.898000", "203944.901000", "203944.904000", "203944.907000"],
      "InstanceNumber": [1, 2, 3, 4, 5, 6, 7, 8, 9, 10, 11, 12, 13, 14, 15, 16, 17, 18, 19, 20, 21, 22, 23, 24, 25, 26, 27, 28, 29, 30, 31, 32, 33, 34, 35, 36, 37, 38, 39, 40, 41, 42, 43, 44, 45, 46, 47, 48, 49, 50, 51, 52, 53, 54, 55, 56, 57, 58, 59, 60, 61, 62, 63, 64, 65, 66, 67, 68, 69, 70, 71, 72, 73, 74, 75, 76, 77, 78, 79, 80, 81, 82, 83, 84, 85, 86, 87, 88, 89, 90, 91, 92, 93, 94, 95, 96, 97, 98, 99, 100, 101, 102, 103, 104, 105, 106, 107, 108, 109, 110, 111, 112, 113, 114, 115, 116, 117, 118, 119, 120, 121, 122],
      "LargestImagePixelValue": [1717, 1711, 1641, 1649, 1645, 1640, 1618, 1651, 1653, 1710, 1708, 1654, 1659, 1647, 1649, 1629, 1639, 1712, 1648, 1645, 1656, 1716, 1659, 1642, 1634, 1640, 1667, 1649, 1638, 1650, 1682, 1713, 1686, 1653, 1769, 1654, 1650, 1641, 1639, 1655, 1667, 1684, 1650, 1633, 1643, 1698, 1697, 1667, 1699, 1674, 1747, 1824, 1670, 1648, 1747, 1735, 1693, 1641, 1712, 1731, 1656, 1707, 1696, 1656, 1791, 1762, 1734, 1653, 1661, 1660, 1660, 1655, 1653, 1652, 1630, 1628, 1628, 1638, 1740, 1702, 1652, 1737, 1651, 1633, 1760, 1713, 1726, 1704, 1759, 1753, 1696, 1656, 1651, 1651, 1647, 1634, 1637, 1668, 1634, 1630, 1632, 1661, 1705, 1749, 1698, 1645, 1767, 1866, 1672, 1665, 1656, 1657, 1651, 1657, 1633, 1650, 1689, 1702, 1694, 1719, 1755, 1833],
      "WindowCenter": [666.0, 664.0, 663.0, 663.0, 663.0, 663.0, 663.0, 664.0, 665.0, 665.0, 665.0, 664.0, 663.0, 663.0, 664.0, 664.0, 665.0, 665.0, 664.0, 663.0, 663.0, 664.0, 664.0, 663.0, 663.0, 663.0, 663.0, 664.0, 664.0, 664.0, 664.0, 664.0, 663.0, 663.0, 664.0, 664.0, 664.0, 664.0, 664.0, 664.0, 664.0, 664.0, 664.0, 663.0, 663.0, 663.0, 663.0, 663.0, 663.0, 663.0, 663.0, 664.0, 663.0, 663.0, 664.0, 664.0, 664.0, 664.0, 664.0, 664.0, 664.0, 665.0, 664.0, 664.0, 665.0, 665.0, 665.0, 664.0, 664.0, 664.0, 664.0, 664.0, 664.0, 664.0, 665.0, 665.0, 664.0, 664.0, 664.0, 664.0, 664.0, 664.0, 664.0, 664.0, 665.0, 664.0, 664.0, 664.0, 664.0, 664.0, 664.0, 664.0, 664.0, 664.0, 664.0, 664.0, 664.0, 664.0, 664.0, 664.0, 664.0, 664.0, 665.0, 665.0, 664.0, 663.0, 664.0, 665.0, 664.0, 663.0, 663.0, 663.0, 663.0, 664.0, 664.0, 664.0, 665.0, 665.0, 664.0, 664.0, 664.0, 665.0],
      "WindowWidth": [1425.0, 1419.0, 1416.0, 1416.0, 1416.0, 1417.0, 1417.0, 1419.0, 1420.0, 1421.0, 1420.0, 1418.0, 1417.0, 1417.0, 1418.0, 1417.0, 1420.0, 1421.0, 1418.0, 1416.0, 1416.0, 1418.0, 1417.0, 1417.0, 1417.0, 1417.0, 1417.0, 1417.0, 1419.0, 1419.0, 1418.0, 1419.0, 1417.0, 1415.0, 1418.0, 1418.0, 1418.0, 1418.0, 1418.0, 1419.0, 1419.0, 1417.0, 1418.0, 1417.0, 1416.0, 1416.0, 1416.0, 1416.0, 1417.0, 1416.0, 1417.0, 1418.0, 1416.0, 1416.0, 1418.0, 1419.0, 1418.0, 1418.0, 1419.0, 1419.0, 1419.0, 1420.0, 1419.0, 1417.0, 1420.0, 1421.0, 1420.0, 1418.0, 1417.0, 1417.0, 1418.0, 1418.0, 1418.0, 1418.0, 1420.0, 1419.0, 1418.0, 1418.0, 1419.0, 1418.0, 1418.0, 1419.0, 1418.0, 1418.0, 1420.0, 1418.0, 1419.0, 1417.0, 1418.0, 1418.0, 1418.0, 1418.0, 1419.0, 1419.0, 1419.0, 1419.0, 1419.0, 1419.0, 1419.0, 1419.0, 1418.0, 1419.0, 1419.0, 1420.0, 1418.0, 1416.0, 1418.0, 1420.0, 1418.0, 1417.0, 1417.0, 1417.0, 1416.0, 1417.0, 1417.0, 1419.0, 1421.0, 1419.0, 1418.0, 1418.0, 1419.0, 1419.0]
    },
    "slices": {}
  }
}