{
  "AcquisitionMatrixPE": 72,
  "AcquisitionNumber": 1,
  "AcquisitionTime": "19:50:49.542500",
  "BaseResolution": 72,
  "BodyPartExamined": "BRAIN",
  "CoilCombinationMethod": "Sum of Squares",
  "ConsistencyInfo": "N4_VE11C_LATEST_20160120",
  "ConversionSoftware": "dcm2niix",
  "ConversionSoftwareVersion": "v1.0.20220720",
  "DeviceSerialNumber": "45219",
  "DwellTime": 2.39e-05,
  "EchoNumber": 2,
  "EchoTime": 0.00738,
  "EchoTime1": 0.00492,
  "EchoTime2": 0.00738,
  "FlipAngle": 60,
  "HeudiconvVersion": "1.1.6",
  "ImageOrientationPatientDICOM": [0.998421, -0.0484236, 0.0284637, 0.0505778, 0.995462, -0.0805996],
  "ImageOrientationText": "Tra>Cor(-4.7)>Sag(1.4)",
  "ImageType": [
    "ORIGINAL",
    "PRIMARY",
    "P",
    "ND",
    "PHASE"
],
  "ImagingFrequency": 123.182,
  "InPlanePhaseEncodingDirectionDICOM": "ROW",
  "InstitutionAddress": "First Avenue 660,New York,NYC,US,10016",
  "InstitutionName": "NYU LANGONE CBI",
  "InstitutionalDepartmentName": "Department",
  "MRAcquisitionType": "2D",
  "MagneticFieldStrength": 3,
  "Manufacturer": "Siemens",
  "ManufacturersModelName": "Skyra",
  "MatrixCoilMode": "SENSE",
  "Modality": "MR",
  "MultibandAccelerationFactor": 2,
  "NonlinearGradientCorrection": false,
  "PartialFourier": 1,
  "PatientPosition": "HFS",
  "PercentPhaseFOV": 100,
  "PercentSampling": 100,
  "PhaseEncodingDirection": "i",
  "PhaseEncodingSteps": 72,
  "PhaseResolution": 1,
  "PixelBandwidth": 290,
  "ProcedureStepDescription": "MRI BRAIN WITHOUT IV CONTRAST",
  "ProtocolName": "gre_fm_bold",
  "PulseSequenceDetails": "%SiemensSeq%\\gre_field_mapping",
  "ReceiveCoilActiveElements": "HE1-4",
  "ReceiveCoilName": "HeadNeck_20",
  "ReconMatrixPE": 72,
  "RepetitionTime": 0.444,
  "SAR": 0.149611,
  "ScanningSequence": "GR",
  "SequenceName": "*fm2d2r",
  "SequenceVariant": "SP",
  "SeriesDescription": "gre_fm_bold",
  "SeriesNumber": 5,
  "ShimSetting": [-927, -6820, 4951, 309, -113, -109, 207, -270],
  "SliceThickness": 3,
  "SliceTiming": [0.23438, 0, 0.23438, 0.01562, 0.25, 0.03125, 0.26562, 0.04688, 0.28125, 0.0625, 0.28125, 0.0625, 0.29688, 0.07812, 0.3125, 0.09375, 0.32812, 0.09375, 0.32812, 0.10938, 0.34375, 0.125, 0.35938, 0.14062, 0.375, 0.14062, 0.375, 0.15625, 0.39062, 0.17188, 0.40625, 0.1875, 0.42188, 0.1875, 0.42188, 0.20312, 0.4375, 0.21875],
  "SoftwareVersions": "syngo MR E11",
  "SpacingBetweenSlices": 3,
  "StationName": "MRC45219",
  "TxRefAmp": 466.473,
  "dcmmeta_affine": [
    [-2.9952638149261475, 0.15173351764678955, 0.07329487800598145, 102.72929382324219],
    [0.14527064561843872, 2.9863874912261963, -0.24573707580566406, -117.35089111328125],
    [0.08539097011089325, 0.2417987734079361, 2.9890174865722656, -83.57125091552734],
    [0.0, 0.0, 0.0, 1.0]
],
  "dcmmeta_reorient_transform": [
    [0.0, -1.0, 0.0, 71.0],
    [1.0, 0.0, 0.0, 0.0],
    [0.0, 0.0, -1.0, 37.0],
    [0.0, 0.0, 0.0, 1.0]
],
  "dcmmeta_shape": [72, 72, 38],
  "dcmmeta_slice_dim": 2,
  "dcmmeta_version": 0.6,
  "global": {
    "const": {
      "AccessionNumber": "103-1",
      "AcquisitionMatrix": [0, 72, 72, 0],
      "AcquisitionNumber": 1,
      "AngioFlag": "N",
      "BitsAllocated": 16,
      "BitsStored": 12,
      "BodyPartExamined": "BRAIN",
      "Columns": 72,
      "CountryOfResidence": "United States of America [1]",
      "EchoNumbers": 2,
      "EchoTime": 7.38,
      "EchoTrainLength": 0,
      "FlipAngle": 60.0,
      "HighBit": 11,
      "ImageOrientationPatient": [0.99842124376689, -0.0484235507975, 0.02846365618002, 0.05057783801453, 0.99546249975514, -0.0805995898441],
      "ImageType": [
        "ORIGINAL",
        "PRIMARY",
        "P",
        "ND"
],
      "ImagedNucleus": "1H",
      "ImagingFrequency": 123.181999,
      "InPlanePhaseEncodingDirection": "ROW",
      "MRAcquisitionType": "2D",
      "MagneticFieldStrength": 3.0,
      "Manufacturer": "SIEMENS",
      "ManufacturerModelName": "Skyra",
      "Modality": "MR",
      "NumberOfAverages": 1.0,
      "NumberOfPhaseEncodingSteps": 72,
      "PercentPhaseFieldOfView": 100.0,
      "PercentSampling": 100.0,
      "PerformedProcedureStepStartTime": "194242.313000",
      "PhotometricInterpretation": "MONOCHROME2",
      "PixelBandwidth": 290.0,
      "PixelRepresentation": 0,
      "PixelSpacing": [3.0, 3.0],
      "PregnancyStatus": 4,
      "ProcedureCodeSequence": [
        {
          "CodeMeaning": "MRI BRAIN WITHOUT IV CONTRAST",
          "CodeValue": "IMG269",
          "CodingSchemeDesignator": "L"
        }
],
      "ProtocolName": "gre_fm_bold",
      "RepetitionTime": 444.0,
      "RequestAttributesSequence": [
        {
          "RequestedProcedureID": "353073276",
          "ScheduledProcedureStepDescription": "MRI BRAIN WITHOUT IV CONTRAST",
          "ScheduledProcedureStepID": "E10488271",
          "ScheduledProtocolCodeSequence": [
            {
              "CodeMeaning": "MRI BRAIN WITHOUT IV CONTRAST",
              "CodeValue": "651061",
              "CodingSchemeDesignator": "L"
            }
]
        }
],
      "RequestedProcedureCodeSequence": [
        {
          "CodeMeaning": "MRI BRAIN WITHOUT IV CONTRAST",
          "CodeValue": "IMG269",
          "CodingSchemeDesignator": "L"
        }
],
      "RescaleIntercept": -4096.0,
      "RescaleSlope": 2.0,
      "RescaleType": "US",
      "Rows": 72,
      "SAR": 0.14961128516728,
      "SamplesPerPixel": 1,
      "ScanningSequence": "GR",
      "SequenceName": "*fm2d2r",
      "SequenceVariant": "SP",
      "SeriesDescription": "gre_fm_bold",
      "SeriesNumber": 5,
      "SeriesTime": "195154.150000",
      "SliceThickness": 3.0,
      "SmokingStatus": "UNKNOWN",
      "SoftwareVersions": "syngo MR E11",
      "SpacingBetweenSlices": 3.0,
      "SpecificCharacterSet": "ISO_IR 100",
      "StudyID": "103-1",
      "StudyTime": "194242.142000",
      "TransmitCoilName": "Body",
      "VariableFlipAngleFlag": "N",
      "WindowCenterWidthExplanation": "Algo1",
      "dBdt": 0.0},
    "slices": {
      "AcquisitionTime": ["195049.542500", "195049.320000", "195049.552500", "195049.332500", "195049.565000", "195049.342500", "195049.577500", "195049.355000", "195049.587500", "195049.367500", "195049.600000", "195049.377500", "195049.612500", "195049.390000", "195049.622500", "195049.402500", "195049.635000", "195049.412500", "195049.647500", "195049.425000", "195049.657500", "195049.437500", "195049.670000", "195049.447500", "195049.682500", "195049.460000", "195049.692500", "195049.472500", "195049.705000", "195049.482500", "195049.717500", "195049.495000", "195049.727500", "195049.507500", "195049.740000", "195049.517500", "195049.752500", "195049.530000"],
      "ContentTime": ["195154.201000", "195154.152000", "195154.204000", "195154.154000", "195154.206000", "195154.157000", "195154.216000", "195154.159000", "195154.218000", "195154.168000", "195154.220000", "195154.170000", "195154.223000", "195154.173000", "195154.225000", "195154.175000", "195154.227000", "195154.177000", "195154.229000", "195154.179000", "195154.231000", "195154.182000", "195154.233000", "195154.184000", "195154.235000", "195154.186000", "195154.238000", "195154.188000", "195154.240000", "195154.191000", "195154.242000", "195154.193000", "195154.244000", "195154.195000", "195154.246000", "195154.197000", "195154.248000", "195154.199000"],
      "CsaImage.ICE_Dims": [
        "X_2_1_1_1_1_1_20_1_1_1_1_3580",
        "X_2_1_1_1_1_1_1_1_1_2_1_3580",
        "X_2_1_1_1_1_1_21_1_1_3_1_3580",
        "X_2_1_1_1_1_1_2_1_1_4_1_3580",
        "X_2_1_1_1_1_1_22_1_1_5_1_3580",
        "X_2_1_1_1_1_1_3_1_1_6_1_3580",
        "X_2_1_1_1_1_1_23_1_1_7_1_3580",
        "X_2_1_1_1_1_1_4_1_1_8_1_3580",
        "X_2_1_1_1_1_1_24_1_1_9_1_3580",
        "X_2_1_1_1_1_1_5_1_1_10_1_3580",
        "X_2_1_1_1_1_1_25_1_1_11_1_3580",
        "X_2_1_1_1_1_1_6_1_1_12_1_3580",
        "X_2_1_1_1_1_1_26_1_1_13_1_3580",
        "X_2_1_1_1_1_1_7_1_1_14_1_3580",
        "X_2_1_1_1_1_1_27_1_1_15_1_3580",
        "X_2_1_1_1_1_1_8_1_1_16_1_3580",
        "X_2_1_1_1_1_1_28_1_1_17_1_3580",
        "X_2_1_1_1_1_1_9_1_1_18_1_3580",
        "X_2_1_1_1_1_1_29_1_1_19_1_3580",
        "X_2_1_1_1_1_1_10_1_1_20_1_3580",
        "X_2_1_1_1_1_1_30_1_1_21_1_3580",
        "X_2_1_1_1_1_1_11_1_1_22_1_3580",
        "X_2_1_1_1_1_1_31_1_1_23_1_3580",
        "X_2_1_1_1_1_1_12_1_1_24_1_3580",
        "X_2_1_1_1_1_1_32_1_1_25_1_3580",
        "X_2_1_1_1_1_1_13_1_1_26_1_3580",
        "X_2_1_1_1_1_1_33_1_1_27_1_3580",
        "X_2_1_1_1_1_1_14_1_1_28_1_3580",
        "X_2_1_1_1_1_1_34_1_1_29_1_3580",
        "X_2_1_1_1_1_1_15_1_1_30_1_3580",
        "X_2_1_1_1_1_1_35_1_1_31_1_3580",
        "X_2_1_1_1_1_1_16_1_1_32_1_3580",
        "X_2_1_1_1_1_1_36_1_1_33_1_3580",
        "X_2_1_1_1_1_1_17_1_1_34_1_3580",
        "X_2_1_1_1_1_1_37_1_1_35_1_3580",
        "X_2_1_1_1_1_1_18_1_1_36_1_3580",
        "X_2_1_1_1_1_1_38_1_1_37_1_3580",
        "X_2_1_1_1_1_1_19_1_1_38_1_3580"
],
      "CsaImage.ProtocolSliceNumber": [0, 1, 2, 3, 4, 5, 6, 7, 8, 9, 10, 11, 12, 13, 14, 15, 16, 17, 18, 19, 20, 21, 22, 23, 24, 25, 26, 27, 28, 29, 30, 31, 32, 33, 34, 35, 36, 37],
      "CsaImage.SliceMeasurementDuration": [63047.5, 63047.5, 63050.0, 63047.5, 63047.5, 63050.0, 63047.5, 63047.5, 63050.0, 63047.5, 63047.5, 63050.0, 63047.5, 63047.5, 63050.0, 63047.5, 63047.5, 63050.0, 63047.5, 63047.5, 63050.0, 63047.5, 63047.5, 63050.0, 63047.5, 63047.5, 63050.0, 63047.5, 63047.5, 63050.0, 63047.5, 63047.5, 63050.0, 63047.5, 63047.5, 63050.0, 63047.5, 63047.5],
      "CsaImage.SlicePosition_PCS": [
        [-113.50237623, -94.68258075, -66.40363618],
        [-113.57567098, -94.43684511, -63.41461488],
        [-113.64896574, -94.19110946, -60.42559358],
        [-113.72226049, -93.94537334, -57.43657609],
        [-113.79555525, -93.69963722, -54.44755479],
        [-113.86884995, -93.4539011, -51.4585373],
        [-113.94214471, -93.20816498, -48.469516],
        [-114.01543947, -92.96242981, -45.4804947],
        [-114.08873423, -92.71669369, -42.4914734],
        [-114.16202899, -92.47095756, -39.50245591],
        [-114.23532375, -92.22522144, -36.51343461],
        [-114.3086185, -91.97948532, -33.52441331],
        [-114.38191326, -91.73375015, -30.53539582],
        [-114.45520802, -91.48801403, -27.54637452],
        [-114.52850266, -91.24227791, -24.55735322],
        [-114.60179742, -90.99654178, -21.56833383],
        [-114.67509218, -90.75080662, -18.57931253],
        [-114.74838694, -90.50507049, -15.59029313],
        [-114.8216817, -90.25933437, -12.60127374],
        [-114.89497646, -90.01359825, -9.61225244],
        [-114.96827121, -89.76786213, -6.62323209],
        [-115.04156597, -89.52212696, -3.6342127],
        [-115.11486073, -89.27639084, -0.64519187],
        [-115.18815549, -89.03065471, 2.343828],
        [-115.26145025, -88.78491859, 5.33284829],
        [-115.33474489, -88.53918247, 8.32186846],
        [-115.40803977, -88.2934473, 11.31088857],
        [-115.48133441, -88.04771118, 14.29990844],
        [-115.55462929, -87.80197506, 17.28892878],
        [-115.62792392, -87.55623894, 20.27794913],
        [-115.7012188, -87.31050281, 23.26696852],
        [-115.77451344, -87.06476764, 26.25598983],
        [-115.84780808, -86.81903152, 29.24500922],
        [-115.92110296, -86.5732954, 32.23403052],
        [-115.9943976, -86.32755928, 35.22304992],
        [-116.06769248, -86.08182316, 38.21207122],
        [-116.14098712, -85.83608799, 41.20109252],
        [-116.214282, -85.59035091, 44.19011]
],
      "CsaImage.TimeAfterStart": [0.6675, 0.445, 0.68, 0.4575, 0.69, 0.47, 0.7025, 0.48, 0.715, 0.4925, 0.725, 0.505, 0.7375, 0.515, 0.75, 0.5275, 0.76, 0.54, 0.7725, 0.55, 0.785, 0.5625, 0.795, 0.575, 0.8075, 0.585, 0.82, 0.5975, 0.83, 0.61, 0.8425, 0.62, 0.855, 0.6325, 0.865, 0.645, 0.8775, 0.655],
      "ImagePositionPatient": [
        [-113.50237623248, -94.682580755, -66.403636180884],
        [-113.57567097638, -94.436845109706, -63.414614879614],
        [-113.64896573518, -94.191109464412, -60.425593578344],
        [-113.72226049397, -93.94537334228, -57.436576091772],
        [-113.79555525277, -93.699637220149, -54.447554790503],
        [-113.86884995196, -93.453901098017, -51.45853730393],
        [-113.94214471076, -93.208164975886, -48.469516002661],
        [-114.01543946955, -92.962429807429, -45.480494701391],
        [-114.08873422835, -92.716693685298, -42.491473400122],
        [-114.16202898715, -92.470957563166, -39.50245591355],
        [-114.23532374594, -92.225221441035, -36.51343461228],
        [-114.30861850474, -91.979485318904, -33.52441331101],
        [-114.38191326354, -91.733750150447, -30.535395824438],
        [-114.45520802233, -91.488014028315, -27.546374523169],
        [-114.52850266192, -91.242277906184, -24.557353221899],
        [-114.60179742072, -90.996541784053, -21.568333827978],
        [-114.67509217952, -90.750806615596, -18.579312526709],
        [-114.74838693831, -90.505070493464, -15.590293132788],
        [-114.82168169711, -90.259334371333, -12.601273738867],
        [-114.89497645591, -90.013598249202, -9.6122524375974],
        [-114.9682712147, -89.76786212707, -6.6232320900022],
        [-115.0415659735, -89.522126958613, -3.6342126960813],
        [-115.1148607323, -89.276390836482, -0.6451918716489],
        [-115.18815549109, -89.03065471435, 2.3438279991092],
        [-115.26145024989, -88.784918592219, 5.3328482870997],
        [-115.33474488948, -88.539182470088, 8.321868455881],
        [-115.40803976748, -88.293447301631, 11.310888565058],
        [-115.48133440707, -88.047711179499, 14.299908435816],
        [-115.55462928508, -87.801975057368, 17.288928783411],
        [-115.62792392466, -87.556238935237, 20.277949131006],
        [-115.70121880267, -87.310502813105, 23.266968524927],
        [-115.77451344226, -87.064767644648, 26.255989826197],
        [-115.84780808184, -86.819031522517, 29.245009220117],
        [-115.92110295985, -86.573295400386, 32.234030521387],
        [-115.99439759944, -86.327559278254, 35.223049915308],
        [-116.06769247744, -86.081823156123, 38.212071216577],
        [-116.14098711703, -85.836087987666, 41.201092517847],
        [-116.21428199504, -85.59035091186, 44.190110004419]
],
      "InstanceCreationTime": ["195154.201000", "195154.152000", "195154.204000", "195154.154000", "195154.206000", "195154.157000", "195154.216000", "195154.159000", "195154.218000", "195154.168000", "195154.220000", "195154.170000", "195154.223000", "195154.173000", "195154.225000", "195154.175000", "195154.227000", "195154.177000", "195154.229000", "195154.179000", "195154.231000", "195154.182000", "195154.233000", "195154.184000", "195154.235000", "195154.186000", "195154.238000", "195154.188000", "195154.240000", "195154.191000", "195154.242000", "195154.193000", "195154.244000", "195154.195000", "195154.246000", "195154.197000", "195154.248000", "195154.199000"],
      "InstanceNumber": [1, 2, 3, 4, 5, 6, 7, 8, 9, 10, 11, 12, 13, 14, 15, 16, 17, 18, 19, 20, 21, 22, 23, 24, 25, 26, 27, 28, 29, 30, 31, 32, 33, 34, 35, 36, 37, 38],
      "LargestImagePixelValue": [4095, 4092, 4094, 4091, 4094, 4094, 4095, 4095, 4085, 4090, 4095, 4094, 4092, 4083, 4088, 4086, 4089, 4057, 4078, 4078, 4090, 4088, 4088, 4081, 4090, 4093, 4087, 4094, 4095, 4089, 4076, 4088, 4092, 4095, 4093, 4093, 4094, 4093],
      "SliceLocation": [-71.143197383698, -68.143196305983, -65.143195227903, -62.143197911501, -59.143196794363, -56.143199479416, -53.143198362278, -50.143197323257, -47.143196206119, -44.143198889717, -41.143197772579, -38.14319665544, -35.143199417155, -32.143198300017, -29.143197185792, -26.143197969021, -23.14319693, -20.14319771323, -17.14319849646, -14.143197379322, -11.143197212367, -8.1431980737145, -5.1431974316683, -2.143197739806, 0.85680236776171, 3.856802353644, 6.8568022078474, 9.8568018967971, 12.856802066664, 15.856802230706, 18.856801450388, 21.856802486497, 24.856801700355, 27.856802820405, 30.856802034263, 33.856803154314, 36.856804190422, 39.856801587854],
      "SmallestImagePixelValue": [6, 4, 0, 4, 0, 15, 0, 0, 9, 0, 7, 11, 23, 6, 4, 0, 3, 8, 25, 10, 0, 4, 0, 0, 27, 4, 6, 2, 4, 0, 5, 6, 0, 4, 0, 0, 3, 0],
      "WindowCenter": [-220.0, -248.0, -210.0, -208.0, -216.0, -238.0, -212.0, -166.0, -182.0, -216.0, -182.0, -338.0, -222.0, -152.0, -170.0, -168.0, -272.0, -246.0, -206.0, -132.0, -182.0, -168.0, -148.0, -186.0, -202.0, -240.0, -254.0, -222.0, -208.0, -256.0, -138.0, -142.0, -134.0, -130.0, -154.0, -182.0, -218.0, -234.0],
      "WindowWidth": [5592.0, 5556.0, 5548.0, 5618.0, 5424.0, 5528.0, 5302.0, 5518.0, 5304.0, 5548.0, 5554.0, 5510.0, 4954.0, 5364.0, 5162.0, 5312.0, 4544.0, 4530.0, 4510.0, 4704.0, 4496.0, 4488.0, 4482.0, 4498.0, 4496.0, 4524.0, 4552.0, 4556.0, 4574.0, 4622.0, 5256.0, 5298.0, 5600.0, 5642.0, 5756.0, 5866.0, 5956.0, 6156.0]
    }
  }
}