{
  "AcquisitionMatrixPE": 72,
  "AcquisitionNumber": 1,
  "AcquisitionTime": "17:21:43.985000",
  "BandwidthPerPixelPhaseEncode": 24.366,
  "BaseResolution": 72,
  "BodyPartExamined": "BRAIN",
  "CoilCombinationMethod": "Sum of Squares",
  "ConsistencyInfo": "N4_VE11C_LATEST_20160120",
  "ConversionSoftware": "dcm2niix",
  "ConversionSoftwareVersion": "v1.0.20220720",
  "DerivedVendorReportedEchoSpacing": 0.000570011,
  "DeviceSerialNumber": "45219",
  "DwellTime": 3.5e-06,
  "EchoTime": 0.03,
  "EchoTrainLength": 72,
  "EffectiveEchoSpacing": 0.000570011,
  "FlipAngle": 80,
  "HeudiconvVersion": "1.1.6",
  "ImageComments": "Reference volume for motion correction.",
  "ImageOrientationPatientDICOM": [0.999482, -0.0321679, 0.000743698, 0.03141, 0.980428, 0.194354],
  "ImageOrientationText": "Tra>Cor(11.2)>Sag(0.4)",
  "ImageType": [
    "ORIGINAL",
    "PRIMARY",
    "M",
    "ND",
    "NORM",
    "MOCO",
    "MOSAIC"
],
  "ImagingFrequency": 123.182,
  "InPlanePhaseEncodingDirectionDICOM": "COL",
  "InstitutionAddress": "First Avenue 660,New York,NYC,US,10016",
  "InstitutionName": "NYU LANGONE CBI",
  "InstitutionalDepartmentName": "Department",
  "MRAcquisitionType": "2D",
  "MagneticFieldStrength": 3,
  "Manufacturer": "Siemens",
  "ManufacturersModelName": "Skyra",
  "MatrixCoilMode": "SENSE",
  "Modality": "MR",
  "NonlinearGradientCorrection": false,
  "PartialFourier": 1,
  "PatientPosition": "HFS",
  "PercentPhaseFOV": 100,
  "PercentSampling": 100,
  "PhaseEncodingDirection": "j-",
  "PhaseEncodingSteps": 72,
  "PhaseResolution": 1,
  "PixelBandwidth": 1985,
  "ProcedureStepDescription": "MRI BRAIN WITHOUT IV CONTRAST",
  "ProtocolName": "REST_2_MoCo",
  "PulseSequenceDetails": "%SiemensSeq%\\ep2d_bold",
  "ReceiveCoilActiveElements": "HE1-4",
  "ReceiveCoilName": "HeadNeck_20",
  "ReconMatrixPE": 72,
  "RepetitionTime": 2.5,
  "SAR": 0.133923,
  "ScanOptions": "FS",
  "ScanningSequence": "EP",
  "SequenceName": "*epfid2d1_72",
  "SequenceVariant": "SK",
  "SeriesDescription": "MoCoSeries",
  "SeriesNumber": 12,
  "ShimSetting": [-893, -7043, 5058, 454, -184, 51, 313, -199],
  "SliceThickness": 3,
  "SliceTiming": [1.24, 0, 1.305, 0.065, 1.37, 0.13, 1.435, 0.195, 1.5, 0.26, 1.565, 0.325, 1.6325, 0.3925, 1.6975, 0.4575, 1.7625, 0.5225, 1.8275, 0.5875, 1.8925, 0.6525, 1.9575, 0.7175, 2.0225, 0.7825, 2.0875, 0.8475, 2.1525, 0.9125, 2.22, 0.98, 2.285, 1.045, 2.35, 1.11, 2.415, 1.175],
  "SoftwareVersions": "syngo MR E11",
  "SpacingBetweenSlices": 3,
  "StationName": "MRC45219",
  "TaskName": "rest",
  "TotalReadoutTime": 0.0404708,
  "TxRefAmp": 435.014,
  "dcmmeta_affine": [
    [-2.9984467029571533, 0.09423010051250458, 0.020943274721503258, 103.44425201416016],
    [0.09650365263223648, 2.9412853717803955, 0.5826893448829651, -118.09358215332031],
    [0.0022310924250632524, -0.5830613374710083, 2.942793607711792, -16.730422973632812],
    [0.0, 0.0, 0.0, 1.0]
],
  "dcmmeta_reorient_transform": [
    [0.0, -1.0, 0.0, 71.0],
    [1.0, 0.0, 0.0, 0.0],
    [0.0, 0.0, 1.0, 0.0],
    [0.0, 0.0, 0.0, 1.0]
],
  "dcmmeta_shape": [72, 72, 38, 122],
  "dcmmeta_slice_dim": 2,
  "dcmmeta_version": 0.6,
  "global": {
    "const": {
      "AcquisitionMatrix": [72, 0, 0, 72],
      "AngioFlag": "N",
      "BitsAllocated": 16,
      "BitsStored": 12,
      "BodyPartExamined": "BRAIN",
      "Columns": 504,
      "CountryOfResidence": "United States of America [1]",
      "EchoNumbers": 1,
      "EchoTime": 30.0,
      "EchoTrainLength": 72,
      "FlipAngle": 80.0,
      "HighBit": 11,
      "ImageOrientationPatient": [0.9994822030349, -0.0321678835256, 0.00074369750352, 0.03141003295084, 0.98042848635623, 0.19435378301247],
      "ImagePositionPatient": [-778.15275711935, -705.2105534215, -184.55094624665],
      "ImageType": [
        "ORIGINAL",
        "PRIMARY",
        "M",
        "ND",
        "NORM",
        "MOCO",
        "MOSAIC"
],
      "ImagedNucleus": "1H",
      "ImagingFrequency": 123.182006,
      "InPlanePhaseEncodingDirection": "COL",
      "MRAcquisitionType": "2D",
      "MagneticFieldStrength": 3.0,
      "Manufacturer": "SIEMENS",
      "ManufacturerModelName": "Skyra",
      "Modality": "MR",
      "NumberOfAverages": 1.0,
      "NumberOfPhaseEncodingSteps": 72,
      "PercentPhaseFieldOfView": 100.0,
      "PercentSampling": 100.0,
      "PerformedProcedureStepStartTime": "165623.382000",
      "PhotometricInterpretation": "MONOCHROME2",
      "PixelBandwidth": 1985.0,
      "PixelRepresentation": 0,
      "PixelSpacing": [3.0, 3.0],
      "PregnancyStatus": 4,
      "ProcedureCodeSequence": [
        {
          "CodeMeaning": "MRI BRAIN WITHOUT IV CONTRAST",
          "CodeValue": "IMG269",
          "CodingSchemeDesignator": "L"
        }
],
      "ProtocolName": "REST_2",
      "RepetitionTime": 2500.0,
      "RequestAttributesSequence": [
        {
          "RequestedProcedureID": "305297747",
          "ScheduledProcedureStepDescription": "MRI BRAIN WITHOUT IV CONTRAST",
          "ScheduledProcedureStepID": "E9198076",
          "ScheduledProtocolCodeSequence": [
            {
              "CodeMeaning": "MRI BRAIN WITHOUT IV CONTRAST",
              "CodeValue": "651061",
              "CodingSchemeDesignator": "L"
            }
]
        }
],
      "RequestedProcedureCodeSequence": [
        {
          "CodeMeaning": "MRI BRAIN WITHOUT IV CONTRAST",
          "CodeValue": "IMG269",
          "CodingSchemeDesignator": "L"
        }
],
      "Rows": 504,
      "SAR": 0.13392273320141,
      "SamplesPerPixel": 1,
      "ScanOptions": "FS",
      "ScanningSequence": "EP",
      "SequenceName": "*epfid2d1_72",
      "SequenceVariant": "SK",
      "SeriesDescription": "MoCoSeries",
      "SeriesNumber": 12,
      "SeriesTime": "172243.301000",
      "SliceLocation": -38.626532353645,
      "SliceThickness": 3.0,
      "SmallestImagePixelValue": 0,
      "SmokingStatus": "UNKNOWN",
      "SoftwareVersions": "syngo MR E11",
      "SpacingBetweenSlices": 2.9999999059954,
      "SpecificCharacterSet": "ISO_IR 100",
      "StudyTime": "165623.213000",
      "TransmitCoilName": "Body",
      "VariableFlipAngleFlag": "N",
      "WindowCenterWidthExplanation": "Algo1",
      "dBdt": 0.0},
    "slices": {}
  },
  "time": {
    "samples": {
      "AcquisitionNumber": [1, 2, 3, 4, 5, 6, 7, 8, 9, 10, 11, 12, 13, 14, 15, 16, 17, 18, 19, 20, 21, 22, 23, 24, 25, 26, 27, 28, 29, 30, 31, 32, 33, 34, 35, 36, 37, 38, 39, 40, 41, 42, 43, 44, 45, 46, 47, 48, 49, 50, 51, 52, 53, 54, 55, 56, 57, 58, 59, 60, 61, 62, 63, 64, 65, 66, 67, 68, 69, 70, 71, 72, 73, 74, 75, 76, 77, 78, 79, 80, 81, 82, 83, 84, 85, 86, 87, 88, 89, 90, 91, 92, 93, 94, 95, 96, 97, 98, 99, 100, 101, 102, 103, 104, 105, 106, 107, 108, 109, 110, 111, 112, 113, 114, 115, 116, 117, 118, 119, 120, 121, 122],
      "AcquisitionTime": ["172143.985000", "172146.485000", "172148.985000", "172151.485000", "172153.985000", "172156.485000", "172158.985000", "172201.485000", "172203.985000", "172206.485000", "172208.985000", "172211.485000", "172213.985000", "172216.485000", "172218.985000", "172221.485000", "172223.985000", "172226.485000", "172228.985000", "172231.485000", "172233.985000", "172236.485000", "172238.985000", "172241.485000", "172243.985000", "172246.485000", "172248.985000", "172251.485000", "172253.985000", "172256.485000", "172258.985000", "172301.485000", "172303.985000", "172306.485000", "172308.985000", "172311.485000", "172313.985000", "172316.485000", "172318.985000", "172321.485000", "172323.985000", "172326.485000", "172328.985000", "172331.485000", "172333.985000", "172336.485000", "172338.985000", "172341.485000", "172343.985000", "172346.485000", "172348.985000", "172351.485000", "172353.985000", "172356.485000", "172358.985000", "172401.485000", "172403.985000", "172406.485000", "172408.985000", "172411.485000", "172413.985000", "172416.485000", "172418.985000", "172421.485000", "172423.985000", "172426.485000", "172428.985000", "172431.485000", "172433.985000", "172436.485000", "172438.985000", "172441.485000", "172443.985000", "172446.485000", "172448.985000", "172451.485000", "172453.985000", "172456.485000", "172458.985000", "172501.485000", "172503.985000", "172506.485000", "172508.985000", "172511.485000", "172513.985000", "172516.485000", "172518.985000", "172521.485000", "172523.985000", "172526.485000", "172528.985000", "172531.485000", "172533.985000", "172536.485000", "172538.985000", "172541.485000", "172543.985000", "172546.485000", "172548.985000", "172551.485000", "172553.985000", "172556.485000", "172558.985000", "172601.485000", "172603.985000", "172606.485000", "172608.985000", "172611.485000", "172613.985000", "172616.485000", "172618.985000", "172621.485000", "172623.985000", "172626.485000", "172628.985000", "172631.485000", "172633.985000", "172636.485000", "172638.985000", "172641.485000", "172643.985000", "172646.485000"],
      "ContentTime": ["172243.303000", "172243.306000", "172243.309000", "172243.312000", "172243.314000", "172243.317000", "172243.320000", "172243.323000", "172243.326000", "172243.328000", "172243.331000", "172243.340000", "172243.343000", "172243.347000", "172243.350000", "172243.352000", "172243.355000", "172243.358000", "172243.361000", "172243.364000", "172243.367000", "172243.369000", "172243.372000", "172243.375000", "172343.284000", "172343.287000", "172343.289000", "172343.292000", "172343.295000", "172343.298000", "172343.300000", "172343.311000", "172343.313000", "172343.316000", "172343.319000", "172343.322000", "172343.324000", "172343.327000", "172343.330000", "172343.332000", "172343.335000", "172343.338000", "172343.341000", "172343.343000", "172343.346000", "172343.349000", "172343.352000", "172343.354000", "172443.294000", "172443.297000", "172443.300000", "172443.303000", "172443.306000", "172443.308000", "172443.311000", "172443.314000", "172443.317000", "172443.319000", "172443.322000", "172443.325000", "172443.327000", "172443.330000", "172443.333000", "172443.336000", "172443.338000", "172443.341000", "172443.344000", "172443.346000", "172443.349000", "172443.352000", "172443.355000", "172443.357000", "172543.281000", "172543.284000", "172543.287000", "172543.290000", "172543.292000", "172543.295000", "172543.298000", "172543.301000", "172543.303000", "172543.306000", "172543.309000", "172543.312000", "172543.314000", "172543.317000", "172543.320000", "172543.323000", "172543.325000", "172543.328000", "172543.331000", "172543.334000", "172543.336000", "172543.339000", "172543.341000", "172543.344000", "172643.286000", "172643.289000", "172643.305000", "172643.308000", "172643.310000", "172643.313000", "172643.316000", "172643.319000", "172643.321000", "172643.324000", "172643.327000", "172643.330000", "172643.332000", "172643.335000", "172643.338000", "172643.340000", "172643.343000", "172643.353000", "172643.356000", "172643.359000", "172643.362000", "172643.364000", "172643.367000", "172643.370000", "172647.977000", "172647.980000"],
      "InstanceCreationTime": ["172243.303000", "172243.306000", "172243.309000", "172243.312000", "172243.314000", "172243.317000", "172243.320000", "172243.323000", "172243.326000", "172243.328000", "172243.331000", "172243.340000", "172243.343000", "172243.347000", "172243.350000", "172243.352000", "172243.355000", "172243.358000", "172243.361000", "172243.364000", "172243.367000", "172243.369000", "172243.372000", "172243.375000", "172343.284000", "172343.287000", "172343.289000", "172343.292000", "172343.295000", "172343.298000", "172343.300000", "172343.311000", "172343.313000", "172343.316000", "172343.319000", "172343.322000", "172343.324000", "172343.327000", "172343.330000", "172343.332000", "172343.335000", "172343.338000", "172343.341000", "172343.343000", "172343.346000", "172343.349000", "172343.352000", "172343.354000", "172443.294000", "172443.297000", "172443.300000", "172443.303000", "172443.306000", "172443.308000", "172443.311000", "172443.314000", "172443.317000", "172443.319000", "172443.322000", "172443.325000", "172443.327000", "172443.330000", "172443.333000", "172443.336000", "172443.338000", "172443.341000", "172443.344000", "172443.346000", "172443.349000", "172443.352000", "172443.355000", "172443.357000", "172543.281000", "172543.284000", "172543.287000", "172543.290000", "172543.292000", "172543.295000", "172543.298000", "172543.301000", "172543.303000", "172543.306000", "172543.309000", "172543.312000", "172543.314000", "172543.317000", "172543.320000", "172543.323000", "172543.325000", "172543.328000", "172543.331000", "172543.334000", "172543.336000", "172543.339000", "172543.341000", "172543.344000", "172643.286000", "172643.289000", "172643.305000", "172643.308000", "172643.310000", "172643.313000", "172643.316000", "172643.319000", "172643.321000", "172643.324000", "172643.327000", "172643.330000", "172643.332000", "172643.335000", "172643.338000", "172643.340000", "172643.343000", "172643.353000", "172643.356000", "172643.359000", "172643.362000", "172643.364000", "172643.367000", "172643.370000", "172647.977000", "172647.980000"],
      "InstanceNumber": [1, 2, 3, 4, 5, 6, 7, 8, 9, 10, 11, 12, 13, 14, 15, 16, 17, 18, 19, 20, 21, 22, 23, 24, 25, 26, 27, 28, 29, 30, 31, 32, 33, 34, 35, 36, 37, 38, 39, 40, 41, 42, 43, 44, 45, 46, 47, 48, 49, 50, 51, 52, 53, 54, 55, 56, 57, 58, 59, 60, 61, 62, 63, 64, 65, 66, 67, 68, 69, 70, 71, 72, 73, 74, 75, 76, 77, 78, 79, 80, 81, 82, 83, 84, 85, 86, 87, 88, 89, 90, 91, 92, 93, 94, 95, 96, 97, 98, 99, 100, 101, 102, 103, 104, 105, 106, 107, 108, 109, 110, 111, 112, 113, 114, 115, 116, 117, 118, 119, 120, 121, 122],
      "LargestImagePixelValue": [1894, 1861, 1902, 1886, 1894, 1871, 1834, 1841, 1845, 1865, 1867, 1867, 1838, 1835, 1811, 1857, 1792, 1830, 1795, 1838, 1859, 1840, 1828, 1837, 1847, 1843, 1843, 1829, 1802, 1804, 1795, 1804, 1803, 1807, 1786, 1818, 1812, 1808, 1827, 1828, 1846, 1794, 1885, 1868, 1853, 1821, 1809, 1833, 1881, 1861, 1855, 1849, 1836, 1843, 1861, 1870, 1851, 1855, 1825, 1819, 1858, 1769, 1808, 1792, 1816, 1832, 1864, 1880, 1870, 1857, 1834, 1848, 1852, 1841, 1897, 1863, 1826, 1815, 1811, 1830, 1762, 1790, 1863, 1843, 1812, 1851, 1809, 1850, 1859, 1821, 1846, 1865, 1842, 1813, 1850, 1892, 1873, 1855, 1853, 1854, 1843, 1821, 1826, 1861, 1846, 1831, 1870, 1884, 1894, 1864, 1829, 1834, 1861, 1847, 1834, 1852, 1809, 1828, 1827, 1838, 1851, 1845],
      "WindowCenter": [665.0, 663.0, 663.0, 663.0, 663.0, 663.0, 665.0, 664.0, 664.0, 664.0, 664.0, 664.0, 664.0, 664.0, 664.0, 664.0, 662.0, 664.0, 664.0, 663.0, 663.0, 664.0, 664.0, 664.0, 665.0, 665.0, 664.0, 663.0, 663.0, 662.0, 662.0, 662.0, 662.0, 662.0, 662.0, 663.0, 663.0, 663.0, 663.0, 663.0, 663.0, 662.0, 663.0, 664.0, 664.0, 663.0, 662.0, 663.0, 664.0, 663.0, 663.0, 663.0, 662.0, 662.0, 663.0, 663.0, 663.0, 663.0, 663.0, 662.0, 662.0, 661.0, 663.0, 664.0, 663.0, 662.0, 663.0, 663.0, 663.0, 663.0, 663.0, 662.0, 663.0, 663.0, 664.0, 663.0, 663.0, 664.0, 663.0, 662.0, 660.0, 662.0, 663.0, 662.0, 662.0, 663.0, 663.0, 663.0, 663.0, 663.0, 663.0, 665.0, 664.0, 663.0, 662.0, 662.0, 662.0, 661.0, 664.0, 664.0, 663.0, 662.0, 662.0, 662.0, 662.0, 661.0, 661.0, 662.0, 663.0, 663.0, 664.0, 664.0, 664.0, 664.0, 664.0, 663.0, 661.0, 662.0, 661.0, 662.0, 662.0, 662.0],
      "WindowWidth": [1413.0, 1407.0, 1408.0, 1407.0, 1407.0, 1408.0, 1412.0, 1411.0, 1410.0, 1409.0, 1410.0, 1410.0, 1410.0, 1410.0, 1410.0, 1409.0, 1405.0, 1410.0, 1410.0, 1409.0, 1408.0, 1409.0, 1410.0, 1411.0, 1412.0, 1412.0, 1410.0, 1408.0, 1407.0, 1405.0, 1404.0, 1404.0, 1405.0, 1406.0, 1406.0, 1407.0, 1407.0, 1407.0, 1407.0, 1407.0, 1407.0, 1405.0, 1407.0, 1410.0, 1410.0, 1407.0, 1406.0, 1406.0, 1409.0, 1408.0, 1407.0, 1406.0, 1405.0, 1405.0, 1406.0, 1406.0, 1406.0, 1407.0, 1407.0, 1406.0, 1406.0, 1402.0, 1408.0, 1409.0, 1408.0, 1406.0, 1407.0, 1408.0, 1408.0, 1408.0, 1407.0, 1406.0, 1406.0, 1407.0, 1408.0, 1407.0, 1407.0, 1409.0, 1408.0, 1406.0, 1401.0, 1406.0, 1408.0, 1406.0, 1405.0, 1407.0, 1406.0, 1407.0, 1408.0, 1407.0, 1407.0, 1411.0, 1410.0, 1406.0, 1406.0, 1406.0, 1405.0, 1403.0, 1409.0, 1410.0, 1407.0, 1405.0, 1405.0, 1406.0, 1405.0, 1403.0, 1403.0, 1405.0, 1407.0, 1408.0, 1409.0, 1409.0, 1410.0, 1410.0, 1408.0, 1407.0, 1404.0, 1404.0, 1404.0, 1404.0, 1405.0, 1405.0]
    },
    "slices": {}
  }
}