{
  "AcquisitionMatrixPE": 72,
  "AcquisitionNumber": 1,
  "AcquisitionTime": "17:09:38.875000",
  "BandwidthPerPixelPhaseEncode": 24.366,
  "BaseResolution": 72,
  "BodyPartExamined": "BRAIN",
  "CoilCombinationMethod": "Sum of Squares",
  "ConsistencyInfo": "N4_VE11C_LATEST_20160120",
  "ConversionSoftware": "dcm2niix",
  "ConversionSoftwareVersion": "v1.0.20220720",
  "DerivedVendorReportedEchoSpacing": 0.000570011,
  "DeviceSerialNumber": "45219",
  "DwellTime": 3.5e-06,
  "EchoTime": 0.03,
  "EchoTrainLength": 72,
  "EffectiveEchoSpacing": 0.000570011,
  "FlipAngle": 80,
  "HeudiconvVersion": "1.1.6",
  "ImageComments": "Reference volume for motion correction.",
  "ImageOrientationPatientDICOM": [0.999482, -0.0321679, 0.000743698, 0.03141, 0.980428, 0.194354],
  "ImageOrientationText": "Tra>Cor(11.2)>Sag(0.4)",
  "ImageType": [
    "ORIGINAL",
    "PRIMARY",
    "M",
    "ND",
    "NORM",
    "MOCO",
    "MOSAIC"
],
  "ImagingFrequency": 123.182,
  "InPlanePhaseEncodingDirectionDICOM": "COL",
  "InstitutionAddress": "First Avenue 660,New York,NYC,US,10016",
  "InstitutionName": "NYU LANGONE CBI",
  "InstitutionalDepartmentName": "Department",
  "MRAcquisitionType": "2D",
  "MagneticFieldStrength": 3,
  "Manufacturer": "Siemens",
  "ManufacturersModelName": "Skyra",
  "MatrixCoilMode": "SENSE",
  "Modality": "MR",
  "NonlinearGradientCorrection": false,
  "PartialFourier": 1,
  "PatientPosition": "HFS",
  "PercentPhaseFOV": 100,
  "PercentSampling": 100,
  "PhaseEncodingDirection": "j-",
  "PhaseEncodingSteps": 72,
  "PhaseResolution": 1,
  "PixelBandwidth": 1985,
  "ProcedureStepDescription": "MRI BRAIN WITHOUT IV CONTRAST",
  "ProtocolName": "TASK_CD_MoCo",
  "PulseSequenceDetails": "%SiemensSeq%\\ep2d_bold",
  "ReceiveCoilActiveElements": "HE1-4",
  "ReceiveCoilName": "HeadNeck_20",
  "ReconMatrixPE": 72,
  "RepetitionTime": 2.5,
  "SAR": 0.133971,
  "ScanOptions": "FS",
  "ScanningSequence": "EP",
  "SequenceName": "*epfid2d1_72",
  "SequenceVariant": "SK",
  "SeriesDescription": "MoCoSeries",
  "SeriesNumber": 8,
  "ShimSetting": [-893, -7043, 5058, 454, -184, 51, 313, -199],
  "SliceThickness": 3,
  "SliceTiming": [1.24, 0, 1.305, 0.065, 1.37, 0.13, 1.435, 0.195, 1.5025, 0.2625, 1.5675, 0.3275, 1.6325, 0.3925, 1.6975, 0.4575, 1.7625, 0.5225, 1.8275, 0.5875, 1.8925, 0.6525, 1.9575, 0.7175, 2.0225, 0.7825, 2.09, 0.85, 2.155, 0.915, 2.22, 0.98, 2.285, 1.045, 2.35, 1.11, 2.415, 1.175],
  "SoftwareVersions": "syngo MR E11",
  "SpacingBetweenSlices": 3,
  "StationName": "MRC45219",
  "TaskName": "cd",
  "TotalReadoutTime": 0.0404708,
  "TxRefAmp": 435.014,
  "dcmmeta_affine": [
    [-2.9984467029571533, 0.09423010051250458, 0.020943274721503258, 103.44425201416016],
    [0.09650365263223648, 2.9412853717803955, 0.5826893448829651, -118.09358215332031],
    [0.0022310924250632524, -0.5830613374710083, 2.942793607711792, -16.730422973632812],
    [0.0, 0.0, 0.0, 1.0]
],
  "dcmmeta_reorient_transform": [
    [0.0, -1.0, 0.0, 71.0],
    [1.0, 0.0, 0.0, 0.0],
    [0.0, 0.0, 1.0, 0.0],
    [0.0, 0.0, 0.0, 1.0]
],
  "dcmmeta_shape": [72, 72, 38, 132],
  "dcmmeta_slice_dim": 2,
  "dcmmeta_version": 0.6,
  "global": {
    "const": {
      "AcquisitionMatrix": [72, 0, 0, 72],
      "AngioFlag": "N",
      "BitsAllocated": 16,
      "BitsStored": 12,
      "BodyPartExamined": "BRAIN",
      "Columns": 504,
      "CountryOfResidence": "United States of America [1]",
      "EchoNumbers": 1,
      "EchoTime": 30.0,
      "EchoTrainLength": 72,
      "FlipAngle": 80.0,
      "HighBit": 11,
      "ImageOrientationPatient": [0.9994822030349, -0.0321678835256, 0.00074369750352, 0.03141003295084, 0.98042848635623, 0.19435378301247],
      "ImagePositionPatient": [-778.15275711935, -705.2105534215, -184.55094624665],
      "ImageType": [
        "ORIGINAL",
        "PRIMARY",
        "M",
        "ND",
        "NORM",
        "MOCO",
        "MOSAIC"
],
      "ImagedNucleus": "1H",
      "ImagingFrequency": 123.181935,
      "InPlanePhaseEncodingDirection": "COL",
      "MRAcquisitionType": "2D",
      "MagneticFieldStrength": 3.0,
      "Manufacturer": "SIEMENS",
      "ManufacturerModelName": "Skyra",
      "Modality": "MR",
      "NumberOfAverages": 1.0,
      "NumberOfPhaseEncodingSteps": 72,
      "PercentPhaseFieldOfView": 100.0,
      "PercentSampling": 100.0,
      "PerformedProcedureStepStartTime": "165623.382000",
      "PhotometricInterpretation": "MONOCHROME2",
      "PixelBandwidth": 1985.0,
      "PixelRepresentation": 0,
      "PixelSpacing": [3.0, 3.0],
      "PregnancyStatus": 4,
      "ProcedureCodeSequence": [
        {
          "CodeMeaning": "MRI BRAIN WITHOUT IV CONTRAST",
          "CodeValue": "IMG269",
          "CodingSchemeDesignator": "L"
        }
],
      "ProtocolName": "TASK_CD",
      "RepetitionTime": 2500.0,
      "RequestAttributesSequence": [
        {
          "RequestedProcedureID": "305297747",
          "ScheduledProcedureStepDescription": "MRI BRAIN WITHOUT IV CONTRAST",
          "ScheduledProcedureStepID": "E9198076",
          "ScheduledProtocolCodeSequence": [
            {
              "CodeMeaning": "MRI BRAIN WITHOUT IV CONTRAST",
              "CodeValue": "651061",
              "CodingSchemeDesignator": "L"
            }
]
        }
],
      "RequestedProcedureCodeSequence": [
        {
          "CodeMeaning": "MRI BRAIN WITHOUT IV CONTRAST",
          "CodeValue": "IMG269",
          "CodingSchemeDesignator": "L"
        }
],
      "Rows": 504,
      "SAR": 0.13397088180132,
      "SamplesPerPixel": 1,
      "ScanOptions": "FS",
      "ScanningSequence": "EP",
      "SequenceName": "*epfid2d1_72",
      "SequenceVariant": "SK",
      "SeriesDescription": "MoCoSeries",
      "SeriesNumber": 8,
      "SeriesTime": "171043.565000",
      "SliceLocation": -38.626532353645,
      "SliceThickness": 3.0,
      "SmallestImagePixelValue": 0,
      "SmokingStatus": "UNKNOWN",
      "SoftwareVersions": "syngo MR E11",
      "SpacingBetweenSlices": 2.9999999059954,
      "SpecificCharacterSet": "ISO_IR 100",
      "StudyTime": "165623.213000",
      "TransmitCoilName": "Body",
      "VariableFlipAngleFlag": "N",
      "WindowCenterWidthExplanation": "Algo1",
      "dBdt": 0.0},
    "slices": {}
  },
  "time": {
    "samples": {
      "AcquisitionNumber": [1, 2, 3, 4, 5, 6, 7, 8, 9, 10, 11, 12, 13, 14, 15, 16, 17, 18, 19, 20, 21, 22, 23, 24, 25, 26, 27, 28, 29, 30, 31, 32, 33, 34, 35, 36, 37, 38, 39, 40, 41, 42, 43, 44, 45, 46, 47, 48, 49, 50, 51, 52, 53, 54, 55, 56, 57, 58, 59, 60, 61, 62, 63, 64, 65, 66, 67, 68, 69, 70, 71, 72, 73, 74, 75, 76, 77, 78, 79, 80, 81, 82, 83, 84, 85, 86, 87, 88, 89, 90, 91, 92, 93, 94, 95, 96, 97, 98, 99, 100, 101, 102, 103, 104, 105, 106, 107, 108, 109, 110, 111, 112, 113, 114, 115, 116, 117, 118, 119, 120, 121, 122, 123, 124, 125, 126, 127, 128, 129, 130, 131, 132],
      "AcquisitionTime": ["170938.875000", "170941.375000", "170943.875000", "170946.375000", "170948.875000", "170951.375000", "170953.875000", "170956.375000", "170958.875000", "171001.375000", "171003.875000", "171006.375000", "171008.875000", "171011.375000", "171013.875000", "171016.375000", "171018.875000", "171021.375000", "171023.875000", "171026.375000", "171028.875000", "171031.375000", "171033.875000", "171036.375000", "171038.875000", "171041.375000", "171043.875000", "171046.375000", "171048.875000", "171051.375000", "171053.875000", "171056.375000", "171058.875000", "171101.375000", "171103.875000", "171106.375000", "171108.875000", "171111.375000", "171113.875000", "171116.375000", "171118.875000", "171121.375000", "171123.875000", "171126.375000", "171128.875000", "171131.375000", "171133.875000", "171136.375000", "171138.875000", "171141.375000", "171143.875000", "171146.375000", "171148.875000", "171151.375000", "171153.875000", "171156.375000", "171158.875000", "171201.375000", "171203.875000", "171206.375000", "171208.875000", "171211.375000", "171213.875000", "171216.375000", "171218.875000", "171221.375000", "171223.875000", "171226.375000", "171228.875000", "171231.375000", "171233.875000", "171236.375000", "171238.875000", "171241.375000", "171243.875000", "171246.375000", "171248.875000", "171251.375000", "171253.875000", "171256.375000", "171258.875000", "171301.375000", "171303.875000", "171306.375000", "171308.875000", "171311.375000", "171313.875000", "171316.375000", "171318.875000", "171321.375000", "171323.875000", "171326.375000", "171328.875000", "171331.375000", "171333.875000", "171336.375000", "171338.875000", "171341.375000", "171343.875000", "171346.375000", "171348.875000", "171351.375000", "171353.875000", "171356.375000", "171358.875000", "171401.375000", "171403.875000", "171406.375000", "171408.875000", "171411.375000", "171413.875000", "171416.375000", "171418.875000", "171421.375000", "171423.875000", "171426.375000", "171428.875000", "171431.375000", "171433.875000", "171436.375000", "171438.875000", "171441.375000", "171443.875000", "171446.375000", "171448.875000", "171451.375000", "171453.875000", "171456.375000", "171458.875000", "171501.375000", "171503.875000", "171506.375000"],
      "ContentTime": ["171043.567000", "171043.570000", "171043.573000", "171043.576000", "171043.578000", "171043.581000", "171043.584000", "171043.587000", "171043.589000", "171043.592000", "171043.595000", "171043.598000", "171043.600000", "171043.603000", "171043.606000", "171043.609000", "171043.611000", "171043.621000", "171043.624000", "171043.627000", "171043.630000", "171043.632000", "171043.635000", "171043.638000", "171043.641000", "171043.643000", "171143.548000", "171143.551000", "171143.562000", "171143.564000", "171143.567000", "171143.570000", "171143.573000", "171143.575000", "171143.578000", "171143.581000", "171143.584000", "171143.586000", "171143.589000", "171143.592000", "171143.595000", "171143.597000", "171143.600000", "171143.603000", "171143.606000", "171143.608000", "171143.611000", "171143.614000", "171143.617000", "171143.619000", "171243.546000", "171243.549000", "171243.552000", "171243.555000", "171243.558000", "171243.560000", "171243.563000", "171243.566000", "171243.569000", "171243.571000", "171243.574000", "171243.577000", "171243.580000", "171243.582000", "171243.585000", "171243.588000", "171243.591000", "171243.594000", "171243.596000", "171243.599000", "171243.602000", "171243.605000", "171243.607000", "171243.610000", "171303.494000", "171303.497000", "171303.500000", "171303.502000", "171303.505000", "171303.508000", "171303.511000", "171303.513000", "171403.545000", "171403.548000", "171403.551000", "171403.554000", "171403.557000", "171403.559000", "171403.562000", "171403.565000", "171403.568000", "171403.570000", "171403.573000", "171403.576000", "171403.579000", "171403.581000", "171403.584000", "171403.587000", "171403.589000", "171403.592000", "171403.595000", "171403.597000", "171403.600000", "171403.603000", "171403.606000", "171403.608000", "171503.563000", "171503.566000", "171503.578000", "171503.581000", "171503.583000", "171503.586000", "171503.589000", "171503.591000", "171503.594000", "171503.597000", "171503.599000", "171503.602000", "171503.605000", "171503.608000", "171503.610000", "171503.613000", "171503.616000", "171503.619000", "171503.622000", "171503.624000", "171503.627000", "171503.630000", "171503.633000", "171503.635000", "171508.295000", "171508.303000"],
      "InstanceCreationTime": ["171043.567000", "171043.570000", "171043.573000", "171043.576000", "171043.578000", "171043.581000", "171043.584000", "171043.587000", "171043.589000", "171043.592000", "171043.595000", "171043.598000", "171043.600000", "171043.603000", "171043.606000", "171043.609000", "171043.611000", "171043.621000", "171043.624000", "171043.627000", "171043.630000", "171043.632000", "171043.635000", "171043.638000", "171043.641000", "171043.643000", "171143.548000", "171143.551000", "171143.562000", "171143.564000", "171143.567000", "171143.570000", "171143.573000", "171143.575000", "171143.578000", "171143.581000", "171143.584000", "171143.586000", "171143.589000", "171143.592000", "171143.595000", "171143.597000", "171143.600000", "171143.603000", "171143.606000", "171143.608000", "171143.611000", "171143.614000", "171143.617000", "171143.619000", "171243.546000", "171243.549000", "171243.552000", "171243.555000", "171243.558000", "171243.560000", "171243.563000", "171243.566000", "171243.569000", "171243.571000", "171243.574000", "171243.577000", "171243.580000", "171243.582000", "171243.585000", "171243.588000", "171243.591000", "171243.594000", "171243.596000", "171243.599000", "171243.602000", "171243.605000", "171243.607000", "171243.610000", "171303.494000", "171303.497000", "171303.500000", "171303.502000", "171303.505000", "171303.508000", "171303.511000", "171303.513000", "171403.545000", "171403.548000", "171403.551000", "171403.554000", "171403.557000", "171403.559000", "171403.562000", "171403.565000", "171403.568000", "171403.570000", "171403.573000", "171403.576000", "171403.579000", "171403.581000", "171403.584000", "171403.587000", "171403.589000", "171403.592000", "171403.595000", "171403.597000", "171403.600000", "171403.603000", "171403.606000", "171403.608000", "171503.563000", "171503.566000", "171503.578000", "171503.581000", "171503.583000", "171503.586000", "171503.589000", "171503.591000", "171503.594000", "171503.597000", "171503.599000", "171503.602000", "171503.605000", "171503.608000", "171503.610000", "171503.613000", "171503.616000", "171503.619000", "171503.622000", "171503.624000", "171503.627000", "171503.630000", "171503.633000", "171503.635000", "171508.295000", "171508.303000"],
      "InstanceNumber": [1, 2, 3, 4, 5, 6, 7, 8, 9, 10, 11, 12, 13, 14, 15, 16, 17, 18, 19, 20, 21, 22, 23, 24, 25, 26, 27, 28, 29, 30, 31, 32, 33, 34, 35, 36, 37, 38, 39, 40, 41, 42, 43, 44, 45, 46, 47, 48, 49, 50, 51, 52, 53, 54, 55, 56, 57, 58, 59, 60, 61, 62, 63, 64, 65, 66, 67, 68, 69, 70, 71, 72, 73, 74, 75, 76, 77, 78, 79, 80, 81, 82, 83, 84, 85, 86, 87, 88, 89, 90, 91, 92, 93, 94, 95, 96, 97, 98, 99, 100, 101, 102, 103, 104, 105, 106, 107, 108, 109, 110, 111, 112, 113, 114, 115, 116, 117, 118, 119, 120, 121, 122, 123, 124, 125, 126, 127, 128, 129, 130, 131, 132],
      "LargestImagePixelValue": [1811, 1867, 1739, 1726, 1885, 1677, 1761, 1804, 2334, 2207, 1886, 1788, 1795, 1804, 1812, 1778, 1783, 1817, 2031, 2028, 1909, 1753, 1724, 1925, 1706, 1690, 1722, 2258, 2191, 2281, 1755, 1765, 2276, 2321, 1828, 1835, 1735, 1697, 1845, 1803, 2022, 1806, 1842, 1814, 2141, 1851, 1900, 1813, 1824, 1959, 1796, 1820, 1801, 1825, 1951, 1664, 1707, 2272, 2072, 2039, 1931, 1813, 1829, 1821, 1724, 1756, 1735, 1972, 2085, 1784, 1809, 1794, 1807, 1842, 1850, 1786, 1781, 1950, 1958, 1733, 1700, 1882, 1910, 1822, 1795, 1752, 1775, 1808, 1838, 1833, 2354, 1723, 1699, 1797, 2182, 1719, 1697, 1702, 2280, 2217, 1800, 1828, 1822, 1797, 1824, 1819, 2300, 1712, 1737, 1917, 2154, 1905, 1789, 1746, 1736, 1735, 1715, 1720, 1757, 1920, 1872, 1760, 1768, 1786, 1785, 1793, 2116, 1789, 1725, 1751, 2252, 2058],
      "WindowCenter": [664.0, 663.0, 663.0, 663.0, 665.0, 665.0, 665.0, 665.0, 666.0, 665.0, 664.0, 664.0, 664.0, 664.0, 665.0, 665.0, 665.0, 665.0, 665.0, 665.0, 664.0, 663.0, 664.0, 664.0, 664.0, 666.0, 665.0, 667.0, 666.0, 665.0, 662.0, 663.0, 665.0, 664.0, 662.0, 663.0, 661.0, 663.0, 665.0, 665.0, 665.0, 664.0, 664.0, 664.0, 665.0, 664.0, 664.0, 664.0, 664.0, 664.0, 664.0, 664.0, 664.0, 664.0, 665.0, 665.0, 665.0, 667.0, 665.0, 665.0, 664.0, 664.0, 664.0, 664.0, 664.0, 665.0, 664.0, 665.0, 665.0, 664.0, 664.0, 664.0, 664.0, 664.0, 664.0, 664.0, 664.0, 664.0, 664.0, 664.0, 664.0, 665.0, 665.0, 664.0, 664.0, 663.0, 664.0, 664.0, 664.0, 664.0, 666.0, 663.0, 665.0, 665.0, 666.0, 662.0, 664.0, 665.0, 667.0, 666.0, 664.0, 664.0, 665.0, 665.0, 665.0, 665.0, 666.0, 664.0, 664.0, 665.0, 665.0, 664.0, 663.0, 664.0, 664.0, 664.0, 664.0, 665.0, 664.0, 665.0, 664.0, 663.0, 664.0, 664.0, 665.0, 665.0, 666.0, 664.0, 665.0, 664.0, 666.0, 664.0],
      "WindowWidth": [1407.0, 1404.0, 1404.0, 1404.0, 1407.0, 1408.0, 1409.0, 1408.0, 1411.0, 1408.0, 1405.0, 1405.0, 1406.0, 1407.0, 1407.0, 1408.0, 1408.0, 1408.0, 1408.0, 1407.0, 1405.0, 1405.0, 1406.0, 1406.0, 1407.0, 1410.0, 1408.0, 1412.0, 1409.0, 1407.0, 1402.0, 1403.0, 1407.0, 1406.0, 1401.0, 1402.0, 1399.0, 1404.0, 1409.0, 1407.0, 1408.0, 1406.0, 1405.0, 1404.0, 1407.0, 1405.0, 1405.0, 1406.0, 1406.0, 1406.0, 1405.0, 1406.0, 1405.0, 1407.0, 1407.0, 1407.0, 1408.0, 1412.0, 1408.0, 1407.0, 1405.0, 1404.0, 1406.0, 1406.0, 1406.0, 1407.0, 1407.0, 1408.0, 1408.0, 1406.0, 1406.0, 1406.0, 1405.0, 1405.0, 1406.0, 1406.0, 1405.0, 1406.0, 1406.0, 1405.0, 1405.0, 1407.0, 1407.0, 1405.0, 1405.0, 1404.0, 1405.0, 1406.0, 1405.0, 1406.0, 1409.0, 1404.0, 1407.0, 1407.0, 1410.0, 1402.0, 1407.0, 1407.0, 1411.0, 1409.0, 1406.0, 1407.0, 1407.0, 1407.0, 1407.0, 1407.0, 1408.0, 1405.0, 1405.0, 1407.0, 1408.0, 1405.0, 1404.0, 1405.0, 1406.0, 1406.0, 1406.0, 1407.0, 1407.0, 1407.0, 1406.0, 1404.0, 1404.0, 1405.0, 1407.0, 1407.0, 1409.0, 1405.0, 1407.0, 1407.0, 1409.0, 1406.0]
    },
    "slices": {}
  }
}