{
  "AcquisitionMatrixPE": 72,
  "AcquisitionNumber": 1,
  "AcquisitionTime": "17:15:43.917500",
  "BandwidthPerPixelPhaseEncode": 24.366,
  "BaseResolution": 72,
  "BodyPartExamined": "BRAIN",
  "CoilCombinationMethod": "Sum of Squares",
  "ConsistencyInfo": "N4_VE11C_LATEST_20160120",
  "ConversionSoftware": "dcm2niix",
  "ConversionSoftwareVersion": "v1.0.20220720",
  "DerivedVendorReportedEchoSpacing": 0.000570011,
  "DeviceSerialNumber": "45219",
  "DwellTime": 3.5e-06,
  "EchoTime": 0.03,
  "EchoTrainLength": 72,
  "EffectiveEchoSpacing": 0.000570011,
  "FlipAngle": 80,
  "HeudiconvVersion": "1.1.6",
  "ImageComments": "Reference volume for motion correction.",
  "ImageOrientationPatientDICOM": [0.999482, -0.0321679, 0.000743698, 0.03141, 0.980428, 0.194354],
  "ImageOrientationText": "Tra>Cor(11.2)>Sag(0.4)",
  "ImageType": [
    "ORIGINAL",
    "PRIMARY",
    "M",
    "ND",
    "NORM",
    "MOCO",
    "MOSAIC"
],
  "ImagingFrequency": 123.182,
  "InPlanePhaseEncodingDirectionDICOM": "COL",
  "InstitutionAddress": "First Avenue 660,New York,NYC,US,10016",
  "InstitutionName": "NYU LANGONE CBI",
  "InstitutionalDepartmentName": "Department",
  "MRAcquisitionType": "2D",
  "MagneticFieldStrength": 3,
  "Manufacturer": "Siemens",
  "ManufacturersModelName": "Skyra",
  "MatrixCoilMode": "SENSE",
  "Modality": "MR",
  "NonlinearGradientCorrection": false,
  "PartialFourier": 1,
  "PatientPosition": "HFS",
  "PercentPhaseFOV": 100,
  "PercentSampling": 100,
  "PhaseEncodingDirection": "j-",
  "PhaseEncodingSteps": 72,
  "PhaseResolution": 1,
  "PixelBandwidth": 1985,
  "ProcedureStepDescription": "MRI BRAIN WITHOUT IV CONTRAST",
  "ProtocolName": "REST_1_MoCo",
  "PulseSequenceDetails": "%SiemensSeq%\\ep2d_bold",
  "ReceiveCoilActiveElements": "HE1-4",
  "ReceiveCoilName": "HeadNeck_20",
  "ReconMatrixPE": 72,
  "RepetitionTime": 2.5,
  "SAR": 0.133923,
  "ScanOptions": "FS",
  "ScanningSequence": "EP",
  "SequenceName": "*epfid2d1_72",
  "SequenceVariant": "SK",
  "SeriesDescription": "MoCoSeries",
  "SeriesNumber": 10,
  "ShimSetting": [-893, -7043, 5058, 454, -184, 51, 313, -199],
  "SliceThickness": 3,
  "SliceTiming": [1.24, 0, 1.305, 0.065, 1.37, 0.13, 1.435, 0.195, 1.5, 0.26, 1.565, 0.325, 1.63, 0.39, 1.695, 0.455, 1.7625, 0.5225, 1.8275, 0.5875, 1.8925, 0.6525, 1.9575, 0.7175, 2.0225, 0.7825, 2.0875, 0.8475, 2.1525, 0.9125, 2.2175, 0.9775, 2.2825, 1.0425, 2.3475, 1.11, 2.415, 1.175],
  "SoftwareVersions": "syngo MR E11",
  "SpacingBetweenSlices": 3,
  "StationName": "MRC45219",
  "TaskName": "rest",
  "TotalReadoutTime": 0.0404708,
  "TxRefAmp": 435.014,
  "dcmmeta_affine": [
    [-2.9984467029571533, 0.09423010051250458, 0.020943274721503258, 103.44425201416016],
    [0.09650365263223648, 2.9412853717803955, 0.5826893448829651, -118.09358215332031],
    [0.0022310924250632524, -0.5830613374710083, 2.942793607711792, -16.730422973632812],
    [0.0, 0.0, 0.0, 1.0]
],
  "dcmmeta_reorient_transform": [
    [0.0, -1.0, 0.0, 71.0],
    [1.0, 0.0, 0.0, 0.0],
    [0.0, 0.0, 1.0, 0.0],
    [0.0, 0.0, 0.0, 1.0]
],
  "dcmmeta_shape": [72, 72, 38, 122],
  "dcmmeta_slice_dim": 2,
  "dcmmeta_version": 0.6,
  "global": {
    "const": {
      "AcquisitionMatrix": [72, 0, 0, 72],
      "AngioFlag": "N",
      "BitsAllocated": 16,
      "BitsStored": 12,
      "BodyPartExamined": "BRAIN",
      "Columns": 504,
      "CountryOfResidence": "United States of America [1]",
      "EchoNumbers": 1,
      "EchoTime": 30.0,
      "EchoTrainLength": 72,
      "FlipAngle": 80.0,
      "HighBit": 11,
      "ImageOrientationPatient": [0.9994822030349, -0.0321678835256, 0.00074369750352, 0.03141003295084, 0.98042848635623, 0.19435378301247],
      "ImagePositionPatient": [-778.15275711935, -705.2105534215, -184.55094624665],
      "ImageType": [
        "ORIGINAL",
        "PRIMARY",
        "M",
        "ND",
        "NORM",
        "MOCO",
        "MOSAIC"
],
      "ImagedNucleus": "1H",
      "ImagingFrequency": 123.181969,
      "InPlanePhaseEncodingDirection": "COL",
      "MRAcquisitionType": "2D",
      "MagneticFieldStrength": 3.0,
      "Manufacturer": "SIEMENS",
      "ManufacturerModelName": "Skyra",
      "Modality": "MR",
      "NumberOfAverages": 1.0,
      "NumberOfPhaseEncodingSteps": 72,
      "PercentPhaseFieldOfView": 100.0,
      "PercentSampling": 100.0,
      "PerformedProcedureStepStartTime": "165623.382000",
      "PhotometricInterpretation": "MONOCHROME2",
      "PixelBandwidth": 1985.0,
      "PixelRepresentation": 0,
      "PixelSpacing": [3.0, 3.0],
      "PregnancyStatus": 4,
      "ProcedureCodeSequence": [
        {
          "CodeMeaning": "MRI BRAIN WITHOUT IV CONTRAST",
          "CodeValue": "IMG269",
          "CodingSchemeDesignator": "L"
        }
],
      "ProtocolName": "REST_1",
      "RepetitionTime": 2500.0,
      "RequestAttributesSequence": [
        {
          "RequestedProcedureID": "305297747",
          "ScheduledProcedureStepDescription": "MRI BRAIN WITHOUT IV CONTRAST",
          "ScheduledProcedureStepID": "E9198076",
          "ScheduledProtocolCodeSequence": [
            {
              "CodeMeaning": "MRI BRAIN WITHOUT IV CONTRAST",
              "CodeValue": "651061",
              "CodingSchemeDesignator": "L"
            }
]
        }
],
      "RequestedProcedureCodeSequence": [
        {
          "CodeMeaning": "MRI BRAIN WITHOUT IV CONTRAST",
          "CodeValue": "IMG269",
          "CodingSchemeDesignator": "L"
        }
],
      "Rows": 504,
      "SAR": 0.13392273320141,
      "SamplesPerPixel": 1,
      "ScanOptions": "FS",
      "ScanningSequence": "EP",
      "SequenceName": "*epfid2d1_72",
      "SequenceVariant": "SK",
      "SeriesDescription": "MoCoSeries",
      "SeriesNumber": 10,
      "SeriesTime": "171551.982000",
      "SliceLocation": -38.626532353645,
      "SliceThickness": 3.0,
      "SmallestImagePixelValue": 0,
      "SmokingStatus": "UNKNOWN",
      "SoftwareVersions": "syngo MR E11",
      "SpacingBetweenSlices": 2.9999999059954,
      "SpecificCharacterSet": "ISO_IR 100",
      "StudyTime": "165623.213000",
      "TransmitCoilName": "Body",
      "VariableFlipAngleFlag": "N",
      "WindowCenterWidthExplanation": "Algo1",
      "dBdt": 0.0},
    "slices": {}
  },
  "time": {
    "samples": {
      "AcquisitionNumber": [1, 2, 3, 4, 5, 6, 7, 8, 9, 10, 11, 12, 13, 14, 15, 16, 17, 18, 19, 20, 21, 22, 23, 24, 25, 26, 27, 28, 29, 30, 31, 32, 33, 34, 35, 36, 37, 38, 39, 40, 41, 42, 43, 44, 45, 46, 47, 48, 49, 50, 51, 52, 53, 54, 55, 56, 57, 58, 59, 60, 61, 62, 63, 64, 65, 66, 67, 68, 69, 70, 71, 72, 73, 74, 75, 76, 77, 78, 79, 80, 81, 82, 83, 84, 85, 86, 87, 88, 89, 90, 91, 92, 93, 94, 95, 96, 97, 98, 99, 100, 101, 102, 103, 104, 105, 106, 107, 108, 109, 110, 111, 112, 113, 114, 115, 116, 117, 118, 119, 120, 121, 122],
      "AcquisitionTime": ["171543.917500", "171546.417500", "171548.917500", "171551.417500", "171553.917500", "171556.417500", "171558.917500", "171601.417500", "171603.917500", "171606.417500", "171608.917500", "171611.417500", "171613.917500", "171616.417500", "171618.917500", "171621.417500", "171623.917500", "171626.417500", "171628.917500", "171631.417500", "171633.917500", "171636.417500", "171638.917500", "171641.417500", "171643.917500", "171646.417500", "171648.917500", "171651.417500", "171653.917500", "171656.417500", "171658.917500", "171701.417500", "171703.917500", "171706.417500", "171708.917500", "171711.417500", "171713.917500", "171716.417500", "171718.917500", "171721.417500", "171723.917500", "171726.417500", "171728.917500", "171731.417500", "171733.917500", "171736.417500", "171738.917500", "171741.417500", "171743.917500", "171746.417500", "171748.917500", "171751.417500", "171753.917500", "171756.417500", "171758.917500", "171801.417500", "171803.917500", "171806.417500", "171808.917500", "171811.417500", "171813.917500", "171816.417500", "171818.917500", "171821.417500", "171823.917500", "171826.417500", "171828.917500", "171831.417500", "171833.917500", "171836.417500", "171838.917500", "171841.417500", "171843.917500", "171846.417500", "171848.917500", "171851.417500", "171853.917500", "171856.417500", "171858.917500", "171901.417500", "171903.917500", "171906.417500", "171908.917500", "171911.417500", "171913.917500", "171916.417500", "171918.917500", "171921.417500", "171923.917500", "171926.417500", "171928.917500", "171931.417500", "171933.917500", "171936.417500", "171938.917500", "171941.417500", "171943.917500", "171946.417500", "171948.917500", "171951.417500", "171953.917500", "171956.417500", "171958.917500", "172001.417500", "172003.917500", "172006.417500", "172008.917500", "172011.417500", "172013.917500", "172016.417500", "172018.917500", "172021.417500", "172023.917500", "172026.417500", "172028.917500", "172031.417500", "172033.917500", "172036.417500", "172038.917500", "172041.417500", "172043.917500", "172046.417500"],
      "ContentTime": ["171551.984000", "171551.987000", "171551.990000", "171652.044000", "171652.046000", "171652.049000", "171652.052000", "171652.055000", "171652.057000", "171652.060000", "171652.063000", "171652.066000", "171652.068000", "171652.071000", "171652.074000", "171652.077000", "171652.080000", "171652.082000", "171652.085000", "171652.088000", "171652.091000", "171652.093000", "171652.096000", "171652.099000", "171652.102000", "171652.104000", "171652.107000", "171752.046000", "171752.048000", "171752.051000", "171752.054000", "171752.057000", "171752.059000", "171752.062000", "171752.065000", "171752.068000", "171752.071000", "171752.073000", "171752.076000", "171752.079000", "171752.082000", "171752.084000", "171752.087000", "171752.090000", "171752.093000", "171752.095000", "171752.098000", "171752.101000", "171752.103000", "171752.106000", "171752.109000", "171852.043000", "171852.046000", "171852.049000", "171852.051000", "171852.054000", "171852.057000", "171852.059000", "171852.062000", "171852.065000", "171852.068000", "171852.070000", "171852.073000", "171852.076000", "171852.079000", "171852.082000", "171852.084000", "171852.087000", "171852.090000", "171852.093000", "171852.096000", "171852.098000", "171852.101000", "171852.104000", "171852.106000", "171952.042000", "171952.045000", "171952.048000", "171952.051000", "171952.053000", "171952.056000", "171952.059000", "171952.061000", "171952.064000", "171952.067000", "171952.070000", "171952.073000", "171952.075000", "171952.078000", "171952.081000", "171952.084000", "171952.086000", "171952.089000", "171952.092000", "171952.095000", "171952.097000", "171952.100000", "171952.103000", "171952.106000", "172048.110000", "172048.113000", "172048.116000", "172048.118000", "172048.121000", "172048.124000", "172048.127000", "172048.130000", "172048.132000", "172048.135000", "172048.138000", "172048.140000", "172048.143000", "172048.146000", "172048.149000", "172048.151000", "172048.154000", "172048.157000", "172048.160000", "172048.163000", "172048.166000", "172048.169000", "172048.172000"],
      "InstanceCreationTime": ["171551.984000", "171551.987000", "171551.990000", "171652.044000", "171652.046000", "171652.049000", "171652.052000", "171652.055000", "171652.057000", "171652.060000", "171652.063000", "171652.066000", "171652.068000", "171652.071000", "171652.074000", "171652.077000", "171652.080000", "171652.082000", "171652.085000", "171652.088000", "171652.091000", "171652.093000", "171652.096000", "171652.099000", "171652.102000", "171652.104000", "171652.107000", "171752.046000", "171752.048000", "171752.051000", "171752.054000", "171752.057000", "171752.059000", "171752.062000", "171752.065000", "171752.068000", "171752.071000", "171752.073000", "171752.076000", "171752.079000", "171752.082000", "171752.084000", "171752.087000", "171752.090000", "171752.093000", "171752.095000", "171752.098000", "171752.101000", "171752.103000", "171752.106000", "171752.109000", "171852.043000", "171852.046000", "171852.049000", "171852.051000", "171852.054000", "171852.057000", "171852.059000", "171852.062000", "171852.065000", "171852.068000", "171852.070000", "171852.073000", "171852.076000", "171852.079000", "171852.082000", "171852.084000", "171852.087000", "171852.090000", "171852.093000", "171852.096000", "171852.098000", "171852.101000", "171852.104000", "171852.106000", "171952.042000", "171952.045000", "171952.048000", "171952.051000", "171952.053000", "171952.056000", "171952.059000", "171952.061000", "171952.064000", "171952.067000", "171952.070000", "171952.073000", "171952.075000", "171952.078000", "171952.081000", "171952.084000", "171952.086000", "171952.089000", "171952.092000", "171952.095000", "171952.097000", "171952.100000", "171952.103000", "171952.106000", "172048.110000", "172048.113000", "172048.116000", "172048.118000", "172048.121000", "172048.124000", "172048.127000", "172048.130000", "172048.132000", "172048.135000", "172048.138000", "172048.140000", "172048.143000", "172048.146000", "172048.149000", "172048.151000", "172048.154000", "172048.157000", "172048.160000", "172048.163000", "172048.166000", "172048.169000", "172048.172000"],
      "InstanceNumber": [1, 2, 3, 4, 5, 6, 7, 8, 9, 10, 11, 12, 13, 14, 15, 16, 17, 18, 19, 20, 21, 22, 23, 24, 25, 26, 27, 28, 29, 30, 31, 32, 33, 34, 35, 36, 37, 38, 39, 40, 41, 42, 43, 44, 45, 46, 47, 48, 49, 50, 51, 52, 53, 54, 55, 56, 57, 58, 59, 60, 61, 62, 63, 64, 65, 66, 67, 68, 69, 70, 71, 72, 73, 74, 75, 76, 77, 78, 79, 80, 81, 82, 83, 84, 85, 86, 87, 88, 89, 90, 91, 92, 93, 94, 95, 96, 97, 98, 99, 100, 101, 102, 103, 104, 105, 106, 107, 108, 109, 110, 111, 112, 113, 114, 115, 116, 117, 118, 119, 120, 121, 122],
      "LargestImagePixelValue": [1816, 1864, 1837, 1850, 1889, 1811, 1790, 1811, 1797, 1789, 1749, 1786, 1779, 1824, 1747, 1776, 1815, 1805, 1864, 1803, 1788, 1773, 1785, 1798, 1974, 1763, 1732, 1784, 1770, 1778, 1786, 1804, 1774, 1799, 1807, 1862, 1802, 1774, 1738, 1775, 1814, 1809, 1834, 1840, 1781, 1798, 1854, 1865, 1791, 1723, 1722, 1746, 1881, 1749, 1772, 1737, 1753, 1768, 1822, 1834, 1781, 1770, 1816, 1825, 1874, 1871, 1829, 1788, 1748, 1757, 1736, 1753, 1757, 1809, 1778, 1781, 1803, 1804, 1801, 1820, 1813, 1850, 1875, 1831, 1825, 1780, 1854, 1836, 1816, 1769, 1798, 1847, 1845, 1894, 1819, 1816, 1766, 1755, 1747, 1796, 1742, 1754, 1747, 1767, 1763, 1780, 1730, 1753, 1758, 1782, 1796, 1808, 1806, 1841, 1798, 1762, 1791, 1802, 1867, 1772, 1761, 1750],
      "WindowCenter": [664.0, 663.0, 663.0, 663.0, 664.0, 663.0, 664.0, 664.0, 664.0, 663.0, 663.0, 664.0, 663.0, 665.0, 665.0, 664.0, 664.0, 663.0, 664.0, 664.0, 665.0, 665.0, 663.0, 664.0, 666.0, 665.0, 664.0, 664.0, 663.0, 663.0, 663.0, 664.0, 664.0, 665.0, 664.0, 666.0, 665.0, 664.0, 663.0, 663.0, 663.0, 663.0, 664.0, 664.0, 663.0, 663.0, 664.0, 664.0, 664.0, 663.0, 663.0, 662.0, 663.0, 664.0, 665.0, 664.0, 663.0, 664.0, 665.0, 664.0, 663.0, 663.0, 663.0, 663.0, 663.0, 664.0, 663.0, 664.0, 663.0, 663.0, 663.0, 663.0, 663.0, 663.0, 663.0, 663.0, 663.0, 664.0, 664.0, 664.0, 664.0, 665.0, 665.0, 664.0, 664.0, 663.0, 665.0, 665.0, 664.0, 663.0, 663.0, 664.0, 664.0, 665.0, 664.0, 664.0, 664.0, 664.0, 664.0, 663.0, 663.0, 663.0, 663.0, 663.0, 663.0, 664.0, 664.0, 664.0, 663.0, 663.0, 663.0, 663.0, 663.0, 662.0, 664.0, 663.0, 663.0, 662.0, 663.0, 664.0, 664.0, 663.0],
      "WindowWidth": [1408.0, 1405.0, 1405.0, 1406.0, 1407.0, 1405.0, 1407.0, 1408.0, 1407.0, 1405.0, 1404.0, 1406.0, 1406.0, 1409.0, 1411.0, 1408.0, 1407.0, 1406.0, 1407.0, 1409.0, 1410.0, 1409.0, 1406.0, 1407.0, 1413.0, 1410.0, 1408.0, 1407.0, 1406.0, 1406.0, 1406.0, 1408.0, 1409.0, 1410.0, 1408.0, 1412.0, 1410.0, 1407.0, 1405.0, 1405.0, 1405.0, 1406.0, 1408.0, 1408.0, 1407.0, 1406.0, 1408.0, 1408.0, 1407.0, 1406.0, 1405.0, 1404.0, 1406.0, 1409.0, 1409.0, 1407.0, 1406.0, 1408.0, 1410.0, 1408.0, 1405.0, 1404.0, 1405.0, 1405.0, 1406.0, 1407.0, 1407.0, 1407.0, 1406.0, 1406.0, 1406.0, 1406.0, 1405.0, 1406.0, 1406.0, 1406.0, 1405.0, 1407.0, 1407.0, 1407.0, 1408.0, 1409.0, 1409.0, 1409.0, 1408.0, 1405.0, 1409.0, 1409.0, 1407.0, 1405.0, 1405.0, 1407.0, 1407.0, 1410.0, 1408.0, 1408.0, 1408.0, 1408.0, 1407.0, 1406.0, 1405.0, 1406.0, 1405.0, 1405.0, 1405.0, 1407.0, 1408.0, 1407.0, 1406.0, 1405.0, 1406.0, 1406.0, 1406.0, 1404.0, 1407.0, 1406.0, 1405.0, 1402.0, 1404.0, 1408.0, 1407.0, 1405.0]
    },
    "slices": {}
  }
}