{
  "AcquisitionMatrixPE": 72,
  "AcquisitionNumber": 1,
  "AcquisitionTime": "17:03:33.232500",
  "BandwidthPerPixelPhaseEncode": 24.366,
  "BaseResolution": 72,
  "BodyPartExamined": "BRAIN",
  "CoilCombinationMethod": "Sum of Squares",
  "ConsistencyInfo": "N4_VE11C_LATEST_20160120",
  "ConversionSoftware": "dcm2niix",
  "ConversionSoftwareVersion": "v1.0.20220720",
  "DerivedVendorReportedEchoSpacing": 0.000570011,
  "DeviceSerialNumber": "45219",
  "DwellTime": 3.5e-06,
  "EchoTime": 0.03,
  "EchoTrainLength": 72,
  "EffectiveEchoSpacing": 0.000570011,
  "FlipAngle": 80,
  "HeudiconvVersion": "1.1.6",
  "ImageComments": "Reference volume for motion correction.",
  "ImageOrientationPatientDICOM": [0.999482, -0.0321679, 0.000743698, 0.03141, 0.980428, 0.194354],
  "ImageOrientationText": "Tra>Cor(11.2)>Sag(0.4)",
  "ImageType": [
    "ORIGINAL",
    "PRIMARY",
    "M",
    "ND",
    "NORM",
    "MOCO",
    "MOSAIC"
],
  "ImagingFrequency": 123.182,
  "InPlanePhaseEncodingDirectionDICOM": "COL",
  "InstitutionAddress": "First Avenue 660,New York,NYC,US,10016",
  "InstitutionName": "NYU LANGONE CBI",
  "InstitutionalDepartmentName": "Department",
  "MRAcquisitionType": "2D",
  "MagneticFieldStrength": 3,
  "Manufacturer": "Siemens",
  "ManufacturersModelName": "Skyra",
  "MatrixCoilMode": "SENSE",
  "Modality": "MR",
  "NonlinearGradientCorrection": false,
  "PartialFourier": 1,
  "PatientPosition": "HFS",
  "PercentPhaseFOV": 100,
  "PercentSampling": 100,
  "PhaseEncodingDirection": "j-",
  "PhaseEncodingSteps": 72,
  "PhaseResolution": 1,
  "PixelBandwidth": 1985,
  "ProcedureStepDescription": "MRI BRAIN WITHOUT IV CONTRAST",
  "ProtocolName": "TASK_AB_MoCo",
  "PulseSequenceDetails": "%SiemensSeq%\\ep2d_bold",
  "ReceiveCoilActiveElements": "HE1-4",
  "ReceiveCoilName": "HeadNeck_20",
  "ReconMatrixPE": 72,
  "RepetitionTime": 2.5,
  "SAR": 0.133971,
  "ScanOptions": "FS",
  "ScanningSequence": "EP",
  "SequenceName": "*epfid2d1_72",
  "SequenceVariant": "SK",
  "SeriesDescription": "MoCoSeries",
  "SeriesNumber": 6,
  "ShimSetting": [-893, -7043, 5058, 454, -184, 51, 313, -199],
  "SliceThickness": 3,
  "SliceTiming": [1.24, 0, 1.305, 0.065, 1.37, 0.13, 1.435, 0.195, 1.5025, 0.2625, 1.5675, 0.3275, 1.6325, 0.3925, 1.6975, 0.4575, 1.7625, 0.5225, 1.8275, 0.5875, 1.8925, 0.6525, 1.9575, 0.7175, 2.0225, 0.7825, 2.0875, 0.8475, 2.155, 0.915, 2.22, 0.98, 2.285, 1.045, 2.35, 1.11, 2.415, 1.175],
  "SoftwareVersions": "syngo MR E11",
  "SpacingBetweenSlices": 3,
  "StationName": "MRC45219",
  "TaskName": "ab",
  "TotalReadoutTime": 0.0404708,
  "TxRefAmp": 435.014,
  "dcmmeta_affine": [
    [-2.9984467029571533, 0.09423010051250458, 0.020943274721503258, 103.44425201416016],
    [0.09650365263223648, 2.9412853717803955, 0.5826893448829651, -118.09358215332031],
    [0.0022310924250632524, -0.5830613374710083, 2.942793607711792, -16.730422973632812],
    [0.0, 0.0, 0.0, 1.0]
],
  "dcmmeta_reorient_transform": [
    [0.0, -1.0, 0.0, 71.0],
    [1.0, 0.0, 0.0, 0.0],
    [0.0, 0.0, 1.0, 0.0],
    [0.0, 0.0, 0.0, 1.0]
],
  "dcmmeta_shape": [72, 72, 38, 132],
  "dcmmeta_slice_dim": 2,
  "dcmmeta_version": 0.6,
  "global": {
    "const": {
      "AcquisitionMatrix": [72, 0, 0, 72],
      "AngioFlag": "N",
      "BitsAllocated": 16,
      "BitsStored": 12,
      "BodyPartExamined": "BRAIN",
      "Columns": 504,
      "CountryOfResidence": "United States of America [1]",
      "EchoNumbers": 1,
      "EchoTime": 30.0,
      "EchoTrainLength": 72,
      "FlipAngle": 80.0,
      "HighBit": 11,
      "ImageOrientationPatient": [0.9994822030349, -0.0321678835256, 0.00074369750352, 0.03141003295084, 0.98042848635623, 0.19435378301247],
      "ImagePositionPatient": [-778.15275711935, -705.2105534215, -184.55094624665],
      "ImageType": [
        "ORIGINAL",
        "PRIMARY",
        "M",
        "ND",
        "NORM",
        "MOCO",
        "MOSAIC"
],
      "ImagedNucleus": "1H",
      "ImagingFrequency": 123.181911,
      "InPlanePhaseEncodingDirection": "COL",
      "MRAcquisitionType": "2D",
      "MagneticFieldStrength": 3.0,
      "Manufacturer": "SIEMENS",
      "ManufacturerModelName": "Skyra",
      "Modality": "MR",
      "NumberOfAverages": 1.0,
      "NumberOfPhaseEncodingSteps": 72,
      "PercentPhaseFieldOfView": 100.0,
      "PercentSampling": 100.0,
      "PerformedProcedureStepStartTime": "165623.382000",
      "PhotometricInterpretation": "MONOCHROME2",
      "PixelBandwidth": 1985.0,
      "PixelRepresentation": 0,
      "PixelSpacing": [3.0, 3.0],
      "PregnancyStatus": 4,
      "ProcedureCodeSequence": [
        {
          "CodeMeaning": "MRI BRAIN WITHOUT IV CONTRAST",
          "CodeValue": "IMG269",
          "CodingSchemeDesignator": "L"
        }
],
      "ProtocolName": "TASK_AB",
      "RepetitionTime": 2500.0,
      "RequestAttributesSequence": [
        {
          "RequestedProcedureID": "305297747",
          "ScheduledProcedureStepDescription": "MRI BRAIN WITHOUT IV CONTRAST",
          "ScheduledProcedureStepID": "E9198076",
          "ScheduledProtocolCodeSequence": [
            {
              "CodeMeaning": "MRI BRAIN WITHOUT IV CONTRAST",
              "CodeValue": "651061",
              "CodingSchemeDesignator": "L"
            }
]
        }
],
      "RequestedProcedureCodeSequence": [
        {
          "CodeMeaning": "MRI BRAIN WITHOUT IV CONTRAST",
          "CodeValue": "IMG269",
          "CodingSchemeDesignator": "L"
        }
],
      "Rows": 504,
      "SAR": 0.13397088180132,
      "SamplesPerPixel": 1,
      "ScanOptions": "FS",
      "ScanningSequence": "EP",
      "SequenceName": "*epfid2d1_72",
      "SequenceVariant": "SK",
      "SeriesDescription": "MoCoSeries",
      "SeriesNumber": 6,
      "SeriesTime": "170343.235000",
      "SliceLocation": -38.626532353645,
      "SliceThickness": 3.0,
      "SmallestImagePixelValue": 0,
      "SmokingStatus": "UNKNOWN",
      "SoftwareVersions": "syngo MR E11",
      "SpacingBetweenSlices": 2.9999999059954,
      "SpecificCharacterSet": "ISO_IR 100",
      "StudyTime": "165623.213000",
      "TransmitCoilName": "Body",
      "VariableFlipAngleFlag": "N",
      "WindowCenterWidthExplanation": "Algo1",
      "dBdt": 0.0},
    "slices": {}
  },
  "time": {
    "samples": {
      "AcquisitionNumber": [1, 2, 3, 4, 5, 6, 7, 8, 9, 10, 11, 12, 13, 14, 15, 16, 17, 18, 19, 20, 21, 22, 23, 24, 25, 26, 27, 28, 29, 30, 31, 32, 33, 34, 35, 36, 37, 38, 39, 40, 41, 42, 43, 44, 45, 46, 47, 48, 49, 50, 51, 52, 53, 54, 55, 56, 57, 58, 59, 60, 61, 62, 63, 64, 65, 66, 67, 68, 69, 70, 71, 72, 73, 74, 75, 76, 77, 78, 79, 80, 81, 82, 83, 84, 85, 86, 87, 88, 89, 90, 91, 92, 93, 94, 95, 96, 97, 98, 99, 100, 101, 102, 103, 104, 105, 106, 107, 108, 109, 110, 111, 112, 113, 114, 115, 116, 117, 118, 119, 120, 121, 122, 123, 124, 125, 126, 127, 128, 129, 130, 131, 132],
      "AcquisitionTime": ["170333.232500", "170335.732500", "170338.232500", "170340.732500", "170343.232500", "170345.732500", "170348.232500", "170350.732500", "170353.232500", "170355.732500", "170358.232500", "170400.732500", "170403.232500", "170405.732500", "170408.232500", "170410.732500", "170413.232500", "170415.732500", "170418.232500", "170420.732500", "170423.232500", "170425.732500", "170428.232500", "170430.732500", "170433.232500", "170435.732500", "170438.232500", "170440.732500", "170443.232500", "170445.732500", "170448.232500", "170450.732500", "170453.232500", "170455.732500", "170458.232500", "170500.732500", "170503.232500", "170505.732500", "170508.232500", "170510.732500", "170513.232500", "170515.732500", "170518.232500", "170520.732500", "170523.232500", "170525.732500", "170528.232500", "170530.732500", "170533.232500", "170535.732500", "170538.232500", "170540.732500", "170543.232500", "170545.732500", "170548.232500", "170550.732500", "170553.232500", "170555.732500", "170558.232500", "170600.732500", "170603.232500", "170605.732500", "170608.232500", "170610.732500", "170613.232500", "170615.732500", "170618.232500", "170620.732500", "170623.232500", "170625.732500", "170628.232500", "170630.732500", "170633.232500", "170635.732500", "170638.232500", "170640.732500", "170643.232500", "170645.732500", "170648.232500", "170650.732500", "170653.232500", "170655.732500", "170658.232500", "170700.732500", "170703.232500", "170705.732500", "170708.232500", "170710.732500", "170713.232500", "170715.732500", "170718.232500", "170720.732500", "170723.232500", "170725.732500", "170728.232500", "170730.732500", "170733.232500", "170735.732500", "170738.232500", "170740.732500", "170743.232500", "170745.732500", "170748.232500", "170750.732500", "170753.232500", "170755.732500", "170758.232500", "170800.732500", "170803.232500", "170805.732500", "170808.232500", "170810.732500", "170813.232500", "170815.732500", "170818.232500", "170820.732500", "170823.232500", "170825.732500", "170828.232500", "170830.732500", "170833.232500", "170835.732500", "170838.232500", "170840.732500", "170843.232500", "170845.732500", "170848.232500", "170850.732500", "170853.232500", "170855.732500", "170858.232500", "170900.732500"],
      "ContentTime": ["170343.237000", "170343.240000", "170343.249000", "170343.252000", "170443.287000", "170443.290000", "170443.293000", "170443.295000", "170443.298000", "170443.301000", "170443.304000", "170443.306000", "170443.309000", "170443.312000", "170443.315000", "170443.317000", "170443.320000", "170443.323000", "170443.326000", "170443.328000", "170443.331000", "170443.334000", "170443.337000", "170443.339000", "170443.342000", "170443.345000", "170443.347000", "170443.350000", "170543.285000", "170543.288000", "170543.291000", "170543.294000", "170543.296000", "170543.299000", "170543.302000", "170543.305000", "170543.307000", "170543.310000", "170543.313000", "170543.316000", "170543.318000", "170543.321000", "170543.324000", "170543.327000", "170543.329000", "170543.332000", "170543.335000", "170543.337000", "170543.340000", "170543.343000", "170543.346000", "170543.349000", "170643.285000", "170643.288000", "170643.291000", "170643.294000", "170643.296000", "170643.299000", "170643.302000", "170643.305000", "170643.307000", "170643.310000", "170643.313000", "170643.316000", "170643.318000", "170643.321000", "170643.324000", "170643.327000", "170643.329000", "170643.332000", "170643.335000", "170643.338000", "170643.340000", "170643.343000", "170643.346000", "170643.349000", "170743.289000", "170743.292000", "170743.295000", "170743.298000", "170743.300000", "170743.303000", "170743.306000", "170743.309000", "170743.311000", "170743.314000", "170743.317000", "170743.320000", "170743.322000", "170743.325000", "170743.328000", "170743.331000", "170743.333000", "170743.336000", "170743.339000", "170743.342000", "170743.344000", "170743.347000", "170743.350000", "170743.353000", "170843.289000", "170843.292000", "170843.295000", "170843.297000", "170843.300000", "170843.303000", "170843.306000", "170843.308000", "170843.311000", "170843.314000", "170843.317000", "170843.319000", "170843.322000", "170843.325000", "170843.328000", "170843.330000", "170843.333000", "170843.336000", "170843.339000", "170843.341000", "170843.344000", "170843.347000", "170843.349000", "170843.352000", "170902.703000", "170902.707000", "170902.711000", "170902.715000", "170902.719000", "170902.722000", "170902.725000", "170902.729000"],
      "InstanceCreationTime": ["170343.237000", "170343.240000", "170343.249000", "170343.252000", "170443.287000", "170443.290000", "170443.293000", "170443.295000", "170443.298000", "170443.301000", "170443.304000", "170443.306000", "170443.309000", "170443.312000", "170443.315000", "170443.317000", "170443.320000", "170443.323000", "170443.326000", "170443.328000", "170443.331000", "170443.334000", "170443.337000", "170443.339000", "170443.342000", "170443.345000", "170443.347000", "170443.350000", "170543.285000", "170543.288000", "170543.291000", "170543.294000", "170543.296000", "170543.299000", "170543.302000", "170543.305000", "170543.307000", "170543.310000", "170543.313000", "170543.316000", "170543.318000", "170543.321000", "170543.324000", "170543.327000", "170543.329000", "170543.332000", "170543.335000", "170543.337000", "170543.340000", "170543.343000", "170543.346000", "170543.349000", "170643.285000", "170643.288000", "170643.291000", "170643.294000", "170643.296000", "170643.299000", "170643.302000", "170643.305000", "170643.307000", "170643.310000", "170643.313000", "170643.316000", "170643.318000", "170643.321000", "170643.324000", "170643.327000", "170643.329000", "170643.332000", "170643.335000", "170643.338000", "170643.340000", "170643.343000", "170643.346000", "170643.349000", "170743.289000", "170743.292000", "170743.295000", "170743.298000", "170743.300000", "170743.303000", "170743.306000", "170743.309000", "170743.311000", "170743.314000", "170743.317000", "170743.320000", "170743.322000", "170743.325000", "170743.328000", "170743.331000", "170743.333000", "170743.336000", "170743.339000", "170743.342000", "170743.344000", "170743.347000", "170743.350000", "170743.353000", "170843.289000", "170843.292000", "170843.295000", "170843.297000", "170843.300000", "170843.303000", "170843.306000", "170843.308000", "170843.311000", "170843.314000", "170843.317000", "170843.319000", "170843.322000", "170843.325000", "170843.328000", "170843.330000", "170843.333000", "170843.336000", "170843.339000", "170843.341000", "170843.344000", "170843.347000", "170843.349000", "170843.352000", "170902.703000", "170902.707000", "170902.711000", "170902.715000", "170902.719000", "170902.722000", "170902.725000", "170902.729000"],
      "InstanceNumber": [1, 2, 3, 4, 5, 6, 7, 8, 9, 10, 11, 12, 13, 14, 15, 16, 17, 18, 19, 20, 21, 22, 23, 24, 25, 26, 27, 28, 29, 30, 31, 32, 33, 34, 35, 36, 37, 38, 39, 40, 41, 42, 43, 44, 45, 46, 47, 48, 49, 50, 51, 52, 53, 54, 55, 56, 57, 58, 59, 60, 61, 62, 63, 64, 65, 66, 67, 68, 69, 70, 71, 72, 73, 74, 75, 76, 77, 78, 79, 80, 81, 82, 83, 84, 85, 86, 87, 88, 89, 90, 91, 92, 93, 94, 95, 96, 97, 98, 99, 100, 101, 102, 103, 104, 105, 106, 107, 108, 109, 110, 111, 112, 113, 114, 115, 116, 117, 118, 119, 120, 121, 122, 123, 124, 125, 126, 127, 128, 129, 130, 131, 132],
      "LargestImagePixelValue": [2014, 2032, 2160, 1784, 1768, 1767, 1804, 1821, 1761, 1795, 1768, 1797, 1782, 1808, 1751, 1780, 1803, 1960, 2075, 2113, 1777, 2016, 1802, 1851, 1995, 2344, 2110, 1766, 1790, 1892, 1799, 1810, 1857, 2018, 1757, 1779, 2241, 1804, 1797, 1791, 2313, 2126, 1818, 1893, 1974, 1758, 1735, 1795, 2385, 1783, 1834, 1836, 2187, 1818, 1812, 1881, 1716, 1710, 1774, 2288, 2074, 1853, 1768, 1934, 2410, 2264, 2123, 1689, 1746, 1776, 2348, 2393, 1891, 1777, 1762, 1695, 1662, 1720, 1778, 2428, 2264, 2336, 2162, 2029, 1776, 1793, 1789, 1720, 1699, 1857, 1746, 1748, 1742, 2014, 1778, 1997, 2519, 2166, 1679, 1705, 1715, 1767, 1909, 1743, 1745, 2290, 1963, 1736, 1724, 1718, 1713, 1743, 1786, 1833, 2529, 1768, 1785, 2243, 2063, 2309, 2005, 2206, 2179, 1790, 1738, 1693, 1696, 1751, 1750, 2006, 1757, 1799],
      "WindowCenter": [666.0, 665.0, 665.0, 663.0, 663.0, 664.0, 664.0, 665.0, 664.0, 664.0, 664.0, 664.0, 664.0, 664.0, 664.0, 665.0, 665.0, 665.0, 665.0, 665.0, 663.0, 664.0, 663.0, 664.0, 664.0, 665.0, 664.0, 663.0, 664.0, 664.0, 663.0, 663.0, 663.0, 664.0, 663.0, 663.0, 665.0, 664.0, 665.0, 665.0, 666.0, 665.0, 663.0, 664.0, 664.0, 663.0, 665.0, 665.0, 666.0, 662.0, 664.0, 664.0, 665.0, 663.0, 663.0, 663.0, 663.0, 665.0, 665.0, 666.0, 666.0, 665.0, 663.0, 665.0, 666.0, 664.0, 663.0, 660.0, 661.0, 662.0, 663.0, 663.0, 660.0, 660.0, 661.0, 663.0, 664.0, 667.0, 667.0, 668.0, 665.0, 664.0, 662.0, 662.0, 662.0, 663.0, 663.0, 664.0, 663.0, 664.0, 664.0, 664.0, 664.0, 664.0, 663.0, 664.0, 665.0, 663.0, 662.0, 663.0, 663.0, 663.0, 663.0, 665.0, 664.0, 666.0, 664.0, 663.0, 664.0, 664.0, 664.0, 665.0, 665.0, 665.0, 667.0, 664.0, 665.0, 667.0, 665.0, 665.0, 663.0, 663.0, 663.0, 661.0, 661.0, 662.0, 663.0, 664.0, 664.0, 665.0, 664.0, 664.0],
      "WindowWidth": [1412.0, 1408.0, 1408.0, 1404.0, 1405.0, 1406.0, 1407.0, 1408.0, 1407.0, 1406.0, 1406.0, 1406.0, 1406.0, 1407.0, 1407.0, 1409.0, 1408.0, 1408.0, 1408.0, 1408.0, 1405.0, 1406.0, 1404.0, 1406.0, 1407.0, 1408.0, 1405.0, 1403.0, 1405.0, 1406.0, 1405.0, 1404.0, 1404.0, 1405.0, 1403.0, 1404.0, 1407.0, 1405.0, 1409.0, 1408.0, 1410.0, 1407.0, 1404.0, 1405.0, 1405.0, 1405.0, 1407.0, 1408.0, 1410.0, 1402.0, 1405.0, 1405.0, 1407.0, 1404.0, 1404.0, 1403.0, 1403.0, 1408.0, 1408.0, 1410.0, 1409.0, 1407.0, 1404.0, 1409.0, 1410.0, 1405.0, 1403.0, 1398.0, 1397.0, 1401.0, 1403.0, 1401.0, 1396.0, 1397.0, 1399.0, 1402.0, 1407.0, 1412.0, 1412.0, 1413.0, 1406.0, 1404.0, 1401.0, 1400.0, 1400.0, 1402.0, 1403.0, 1405.0, 1404.0, 1406.0, 1405.0, 1405.0, 1405.0, 1405.0, 1404.0, 1406.0, 1408.0, 1403.0, 1400.0, 1404.0, 1404.0, 1404.0, 1403.0, 1407.0, 1405.0, 1408.0, 1405.0, 1404.0, 1405.0, 1406.0, 1406.0, 1407.0, 1408.0, 1408.0, 1411.0, 1405.0, 1409.0, 1411.0, 1407.0, 1407.0, 1403.0, 1403.0, 1402.0, 1399.0, 1399.0, 1402.0, 1403.0, 1406.0, 1405.0, 1408.0, 1405.0, 1406.0]
    },
    "slices": {}
  }
}