{
  "AcquisitionMatrixPE": 72,
  "AcquisitionNumber": 1,
  "AcquisitionTime": "15:51:34.662500",
  "BandwidthPerPixelPhaseEncode": 24.366,
  "BaseResolution": 72,
  "BodyPartExamined": "BRAIN",
  "CoilCombinationMethod": "Sum of Squares",
  "ConsistencyInfo": "N4_VE11C_LATEST_20160120",
  "ConversionSoftware": "dcm2niix",
  "ConversionSoftwareVersion": "v1.0.20220720",
  "DerivedVendorReportedEchoSpacing": 0.000570011,
  "DeviceSerialNumber": "45219",
  "DwellTime": 3.5e-06,
  "EchoTime": 0.03,
  "EchoTrainLength": 72,
  "EffectiveEchoSpacing": 0.000570011,
  "FlipAngle": 80,
  "HeudiconvVersion": "1.1.6",
  "ImageComments": "Reference volume for motion correction.",
  "ImageOrientationPatientDICOM": [0.99923, -0.0119639, 0.0373601, 0.00872019, 0.996273, 0.0858088],
  "ImageOrientationText": "Tra>Cor(4.9)>Sag(2.2)",
  "ImageType": [
    "ORIGINAL",
    "PRIMARY",
    "M",
    "ND",
    "NORM",
    "MOCO",
    "MOSAIC"
],
  "ImagingFrequency": 123.182,
  "InPlanePhaseEncodingDirectionDICOM": "COL",
  "InstitutionAddress": "First Avenue 660,New York,NYC,US,10016",
  "InstitutionName": "NYU LANGONE CBI",
  "InstitutionalDepartmentName": "Department",
  "MRAcquisitionType": "2D",
  "MagneticFieldStrength": 3,
  "Manufacturer": "Siemens",
  "ManufacturersModelName": "Skyra",
  "MatrixCoilMode": "SENSE",
  "Modality": "MR",
  "NonlinearGradientCorrection": false,
  "PartialFourier": 1,
  "PatientPosition": "HFS",
  "PercentPhaseFOV": 100,
  "PercentSampling": 100,
  "PhaseEncodingDirection": "j-",
  "PhaseEncodingSteps": 72,
  "PhaseResolution": 1,
  "PixelBandwidth": 1985,
  "ProcedureStepDescription": "MRI BRAIN WITHOUT IV CONTRAST",
  "ProtocolName": "REST_1_MoCo",
  "PulseSequenceDetails": "%SiemensSeq%\\ep2d_bold",
  "ReceiveCoilActiveElements": "HE1-4",
  "ReceiveCoilName": "HeadNeck_20",
  "ReconMatrixPE": 72,
  "RepetitionTime": 2.5,
  "SAR": 0.116677,
  "ScanOptions": "FS",
  "ScanningSequence": "EP",
  "SequenceName": "*epfid2d1_72",
  "SequenceVariant": "SK",
  "SeriesDescription": "MoCoSeries",
  "SeriesNumber": 7,
  "ShimSetting": [-822, -6944, 5042, 206, -68, 480, 509, -189],
  "SliceThickness": 3,
  "SliceTiming": [1.24, 0, 1.305, 0.0675, 1.3725, 0.1325, 1.4375, 0.1975, 1.5025, 0.2625, 1.5675, 0.3275, 1.6325, 0.3925, 1.6975, 0.4575, 1.7625, 0.5225, 1.8275, 0.5875, 1.8925, 0.6525, 1.96, 0.72, 2.025, 0.785, 2.09, 0.85, 2.155, 0.915, 2.22, 0.98, 2.285, 1.045, 2.35, 1.11, 2.415, 1.175],
  "SoftwareVersions": "syngo MR E11",
  "SpacingBetweenSlices": 3,
  "StationName": "MRC45219",
  "TaskName": "rest",
  "TotalReadoutTime": 0.0404708,
  "TxRefAmp": 402.191,
  "dcmmeta_affine": [
    [-2.9976906776428223, 0.02616056054830551, 0.11474254727363586, 106.4600601196289],
    [0.03589165583252907, 2.9888203144073486, 0.2562507688999176, -108.5068359375],
    [0.1120803952217102, -0.25742629170417786, 2.986832857131958, -35.04179382324219],
    [0.0, 0.0, 0.0, 1.0]
],
  "dcmmeta_reorient_transform": [
    [0.0, -1.0, 0.0, 71.0],
    [1.0, 0.0, 0.0, 0.0],
    [0.0, 0.0, 1.0, 0.0],
    [0.0, 0.0, 0.0, 1.0]
],
  "dcmmeta_shape": [72, 72, 38, 122],
  "dcmmeta_slice_dim": 2,
  "dcmmeta_version": 0.6,
  "global": {
    "const": {
      "AccessionNumber": "17355688",
      "AcquisitionMatrix": [72, 0, 0, 72],
      "AngioFlag": "N",
      "BitsAllocated": 16,
      "BitsStored": 12,
      "BodyPartExamined": "BRAIN",
      "Columns": 504,
      "CountryOfResidence": "United States of America [1]",
      "EchoNumbers": 1,
      "EchoTime": 30.0,
      "EchoTrainLength": 72,
      "FlipAngle": 80.0,
      "HighBit": 11,
      "ImageOrientationPatient": [0.99923024670498, -0.0119638853974, 0.03736013270981, 0.00872018712902, 0.99627346364981, 0.0858087639093],
      "ImagePositionPatient": [-761.4693442684, -741.53201570145, -133.13250484429],
      "ImageType": [
        "ORIGINAL",
        "PRIMARY",
        "M",
        "ND",
        "NORM",
        "MOCO",
        "MOSAIC"
],
      "ImagedNucleus": "1H",
      "ImagingFrequency": 123.182065,
      "InPlanePhaseEncodingDirection": "COL",
      "MRAcquisitionType": "2D",
      "MagneticFieldStrength": 3.0,
      "Manufacturer": "SIEMENS",
      "ManufacturerModelName": "Skyra",
      "Modality": "MR",
      "NumberOfAverages": 1.0,
      "NumberOfPhaseEncodingSteps": 72,
      "PercentPhaseFieldOfView": 100.0,
      "PercentSampling": 100.0,
      "PerformedProcedureStepStartTime": "154228.653000",
      "PhotometricInterpretation": "MONOCHROME2",
      "PixelBandwidth": 1985.0,
      "PixelRepresentation": 0,
      "PixelSpacing": [3.0, 3.0],
      "PregnancyStatus": 4,
      "ProcedureCodeSequence": [
        {
          "CodeMeaning": "MRI BRAIN WITHOUT IV CONTRAST",
          "CodeValue": "IMG269",
          "CodingSchemeDesignator": "L"
        }
],
      "ProtocolName": "REST_1",
      "RepetitionTime": 2500.0,
      "RequestAttributesSequence": [
        {
          "RequestedProcedureID": "320142780",
          "ScheduledProcedureStepDescription": "MRI BRAIN WITHOUT IV CONTRAST",
          "ScheduledProcedureStepID": "E9429891",
          "ScheduledProtocolCodeSequence": [
            {
              "CodeMeaning": "MRI BRAIN WITHOUT IV CONTRAST",
              "CodeValue": "651061",
              "CodingSchemeDesignator": "L"
            }
]
        }
],
      "RequestedProcedureCodeSequence": [
        {
          "CodeMeaning": "MRI BRAIN WITHOUT IV CONTRAST",
          "CodeValue": "IMG269",
          "CodingSchemeDesignator": "L"
        }
],
      "Rows": 504,
      "SAR": 0.11667650216489,
      "SamplesPerPixel": 1,
      "ScanOptions": "FS",
      "ScanningSequence": "EP",
      "SequenceName": "*epfid2d1_72",
      "SequenceVariant": "SK",
      "SeriesDescription": "MoCoSeries",
      "SeriesNumber": 7,
      "SeriesTime": "155236.029000",
      "SliceLocation": -40.084479040673,
      "SliceThickness": 3.0,
      "SmallestImagePixelValue": 0,
      "SmokingStatus": "UNKNOWN",
      "SoftwareVersions": "syngo MR E11",
      "SpacingBetweenSlices": 3.0000000798686,
      "SpecificCharacterSet": "ISO_IR 100",
      "StudyID": "320142780",
      "StudyTime": "154228.513000",
      "TransmitCoilName": "Body",
      "VariableFlipAngleFlag": "N",
      "WindowCenterWidthExplanation": "Algo1",
      "dBdt": 0.0},
    "slices": {}
  },
  "time": {
    "samples": {
      "AcquisitionNumber": [1, 2, 3, 4, 5, 6, 7, 8, 9, 10, 11, 12, 13, 14, 15, 16, 17, 18, 19, 20, 21, 22, 23, 24, 25, 26, 27, 28, 29, 30, 31, 32, 33, 34, 35, 36, 37, 38, 39, 40, 41, 42, 43, 44, 45, 46, 47, 48, 49, 50, 51, 52, 53, 54, 55, 56, 57, 58, 59, 60, 61, 62, 63, 64, 65, 66, 67, 68, 69, 70, 71, 72, 73, 74, 75, 76, 77, 78, 79, 80, 81, 82, 83, 84, 85, 86, 87, 88, 89, 90, 91, 92, 93, 94, 95, 96, 97, 98, 99, 100, 101, 102, 103, 104, 105, 106, 107, 108, 109, 110, 111, 112, 113, 114, 115, 116, 117, 118, 119, 120, 121, 122],
      "AcquisitionTime": ["155134.662500", "155137.162500", "155139.662500", "155142.162500", "155144.662500", "155147.162500", "155149.662500", "155152.162500", "155154.662500", "155157.162500", "155159.662500", "155202.162500", "155204.662500", "155207.162500", "155209.662500", "155212.162500", "155214.662500", "155217.162500", "155219.662500", "155222.162500", "155224.662500", "155227.162500", "155229.662500", "155232.162500", "155234.662500", "155237.162500", "155239.662500", "155242.162500", "155244.662500", "155247.162500", "155249.662500", "155252.162500", "155254.662500", "155257.162500", "155259.662500", "155302.162500", "155304.662500", "155307.162500", "155309.662500", "155312.162500", "155314.662500", "155317.162500", "155319.662500", "155322.162500", "155324.662500", "155327.162500", "155329.662500", "155332.162500", "155334.662500", "155337.162500", "155339.662500", "155342.162500", "155344.662500", "155347.162500", "155349.662500", "155352.162500", "155354.662500", "155357.162500", "155359.662500", "155402.162500", "155404.662500", "155407.162500", "155409.662500", "155412.162500", "155414.662500", "155417.162500", "155419.662500", "155422.162500", "155424.662500", "155427.162500", "155429.662500", "155432.162500", "155434.662500", "155437.162500", "155439.662500", "155442.162500", "155444.662500", "155447.162500", "155449.662500", "155452.162500", "155454.662500", "155457.162500", "155459.662500", "155502.162500", "155504.662500", "155507.162500", "155509.662500", "155512.162500", "155514.662500", "155517.162500", "155519.662500", "155522.162500", "155524.662500", "155527.162500", "155529.662500", "155532.162500", "155534.662500", "155537.162500", "155539.662500", "155542.162500", "155544.662500", "155547.162500", "155549.662500", "155552.162500", "155554.662500", "155557.162500", "155559.662500", "155602.162500", "155604.662500", "155607.162500", "155609.662500", "155612.162500", "155614.662500", "155617.162500", "155619.662500", "155622.162500", "155624.662500", "155627.162500", "155629.662500", "155632.162500", "155634.662500", "155637.162500"],
      "ContentTime": ["155236.031000", "155236.034000", "155236.037000", "155236.040000", "155236.043000", "155236.046000", "155236.048000", "155236.051000", "155236.054000", "155236.057000", "155236.059000", "155236.062000", "155236.065000", "155236.068000", "155236.071000", "155236.073000", "155236.076000", "155236.079000", "155236.081000", "155236.084000", "155236.087000", "155236.097000", "155236.100000", "155236.103000", "155336.002000", "155336.005000", "155336.008000", "155336.010000", "155336.017000", "155336.019000", "155336.022000", "155336.025000", "155336.028000", "155336.030000", "155336.033000", "155336.036000", "155336.039000", "155336.041000", "155336.044000", "155336.047000", "155336.050000", "155336.052000", "155336.055000", "155336.058000", "155336.061000", "155336.063000", "155336.066000", "155336.069000", "155436.001000", "155436.004000", "155436.006000", "155436.009000", "155436.012000", "155436.015000", "155436.017000", "155436.020000", "155436.023000", "155436.026000", "155436.028000", "155436.031000", "155436.034000", "155436.037000", "155436.039000", "155436.042000", "155436.045000", "155436.048000", "155436.050000", "155436.053000", "155436.056000", "155436.059000", "155436.061000", "155436.064000", "155536.434000", "155536.436000", "155536.439000", "155536.442000", "155536.445000", "155536.447000", "155536.450000", "155536.453000", "155536.456000", "155536.458000", "155536.461000", "155536.464000", "155536.467000", "155536.470000", "155536.472000", "155536.475000", "155536.478000", "155536.481000", "155536.483000", "155536.486000", "155536.489000", "155536.492000", "155536.494000", "155536.497000", "155635.992000", "155635.995000", "155636.005000", "155636.008000", "155636.011000", "155636.014000", "155636.016000", "155636.019000", "155636.022000", "155636.025000", "155636.027000", "155636.030000", "155636.033000", "155636.036000", "155636.038000", "155636.041000", "155636.044000", "155636.047000", "155636.050000", "155636.052000", "155636.055000", "155636.058000", "155636.061000", "155636.063000", "155639.245000", "155639.249000"],
      "InstanceCreationTime": ["155236.031000", "155236.034000", "155236.037000", "155236.040000", "155236.043000", "155236.046000", "155236.048000", "155236.051000", "155236.054000", "155236.057000", "155236.059000", "155236.062000", "155236.065000", "155236.068000", "155236.071000", "155236.073000", "155236.076000", "155236.079000", "155236.081000", "155236.084000", "155236.087000", "155236.097000", "155236.100000", "155236.103000", "155336.002000", "155336.005000", "155336.008000", "155336.010000", "155336.017000", "155336.019000", "155336.022000", "155336.025000", "155336.028000", "155336.030000", "155336.033000", "155336.036000", "155336.039000", "155336.041000", "155336.044000", "155336.047000", "155336.050000", "155336.052000", "155336.055000", "155336.058000", "155336.061000", "155336.063000", "155336.066000", "155336.069000", "155436.001000", "155436.004000", "155436.006000", "155436.009000", "155436.012000", "155436.015000", "155436.017000", "155436.020000", "155436.023000", "155436.026000", "155436.028000", "155436.031000", "155436.034000", "155436.037000", "155436.039000", "155436.042000", "155436.045000", "155436.048000", "155436.050000", "155436.053000", "155436.056000", "155436.059000", "155436.061000", "155436.064000", "155536.434000", "155536.436000", "155536.439000", "155536.442000", "155536.445000", "155536.447000", "155536.450000", "155536.453000", "155536.456000", "155536.458000", "155536.461000", "155536.464000", "155536.467000", "155536.470000", "155536.472000", "155536.475000", "155536.478000", "155536.481000", "155536.483000", "155536.486000", "155536.489000", "155536.492000", "155536.494000", "155536.497000", "155635.992000", "155635.995000", "155636.005000", "155636.008000", "155636.011000", "155636.014000", "155636.016000", "155636.019000", "155636.022000", "155636.025000", "155636.027000", "155636.030000", "155636.033000", "155636.036000", "155636.038000", "155636.041000", "155636.044000", "155636.047000", "155636.050000", "155636.052000", "155636.055000", "155636.058000", "155636.061000", "155636.063000", "155639.245000", "155639.249000"],
      "InstanceNumber": [1, 2, 3, 4, 5, 6, 7, 8, 9, 10, 11, 12, 13, 14, 15, 16, 17, 18, 19, 20, 21, 22, 23, 24, 25, 26, 27, 28, 29, 30, 31, 32, 33, 34, 35, 36, 37, 38, 39, 40, 41, 42, 43, 44, 45, 46, 47, 48, 49, 50, 51, 52, 53, 54, 55, 56, 57, 58, 59, 60, 61, 62, 63, 64, 65, 66, 67, 68, 69, 70, 71, 72, 73, 74, 75, 76, 77, 78, 79, 80, 81, 82, 83, 84, 85, 86, 87, 88, 89, 90, 91, 92, 93, 94, 95, 96, 97, 98, 99, 100, 101, 102, 103, 104, 105, 106, 107, 108, 109, 110, 111, 112, 113, 114, 115, 116, 117, 118, 119, 120, 121, 122],
      "LargestImagePixelValue": [1800, 1886, 1646, 1688, 1645, 1637, 1644, 1636, 1647, 1744, 1624, 1653, 1636, 1677, 1612, 1659, 1660, 1670, 1640, 1655, 1744, 1687, 1872, 1652, 1739, 1680, 1713, 1792, 1667, 1672, 1760, 1678, 1665, 1645, 1664, 1673, 1676, 1680, 1664, 1685, 1920, 1666, 1672, 1651, 1663, 1868, 1662, 1664, 1701, 1629, 1750, 1672, 1687, 1751, 1661, 1688, 1670, 1679, 1731, 1682, 1677, 1639, 1679, 1656, 1709, 1628, 1665, 1692, 1643, 1657, 1676, 1639, 1759, 1653, 1780, 1677, 1715, 1669, 1697, 1663, 1681, 1741, 1652, 1658, 1653, 1652, 1687, 1675, 1721, 1724, 1640, 1675, 1649, 1714, 1743, 1677, 1664, 1657, 1651, 1801, 1658, 1681, 1669, 1643, 1728, 1669, 1768, 1654, 1660, 1741, 1703, 1759, 1692, 1669, 1690, 1792, 1666, 1778, 1711, 1868, 1667, 1779],
      "WindowCenter": [659.0, 658.0, 656.0, 657.0, 656.0, 656.0, 656.0, 656.0, 656.0, 657.0, 657.0, 656.0, 654.0, 653.0, 653.0, 654.0, 656.0, 656.0, 656.0, 657.0, 658.0, 657.0, 658.0, 656.0, 656.0, 656.0, 656.0, 657.0, 656.0, 656.0, 657.0, 656.0, 656.0, 656.0, 655.0, 656.0, 656.0, 656.0, 656.0, 656.0, 657.0, 656.0, 656.0, 656.0, 656.0, 657.0, 656.0, 656.0, 656.0, 656.0, 657.0, 649.0, 657.0, 657.0, 656.0, 656.0, 656.0, 656.0, 655.0, 655.0, 655.0, 655.0, 656.0, 655.0, 656.0, 656.0, 656.0, 655.0, 656.0, 656.0, 656.0, 656.0, 656.0, 655.0, 656.0, 656.0, 657.0, 656.0, 656.0, 656.0, 656.0, 656.0, 655.0, 656.0, 656.0, 656.0, 656.0, 656.0, 657.0, 656.0, 652.0, 654.0, 657.0, 657.0, 657.0, 656.0, 655.0, 655.0, 655.0, 656.0, 655.0, 655.0, 655.0, 655.0, 656.0, 655.0, 656.0, 656.0, 655.0, 656.0, 656.0, 656.0, 656.0, 655.0, 657.0, 657.0, 657.0, 657.0, 656.0, 657.0, 655.0, 656.0],
      "WindowWidth": [1409.0, 1404.0, 1400.0, 1402.0, 1400.0, 1400.0, 1400.0, 1400.0, 1401.0, 1403.0, 1403.0, 1401.0, 1397.0, 1394.0, 1393.0, 1396.0, 1400.0, 1401.0, 1401.0, 1403.0, 1404.0, 1402.0, 1405.0, 1401.0, 1401.0, 1400.0, 1401.0, 1402.0, 1400.0, 1399.0, 1402.0, 1401.0, 1401.0, 1400.0, 1398.0, 1400.0, 1401.0, 1401.0, 1400.0, 1400.0, 1403.0, 1400.0, 1401.0, 1401.0, 1400.0, 1402.0, 1400.0, 1400.0, 1401.0, 1400.0, 1403.0, 1384.0, 1404.0, 1403.0, 1400.0, 1400.0, 1400.0, 1399.0, 1399.0, 1399.0, 1398.0, 1399.0, 1400.0, 1399.0, 1400.0, 1401.0, 1400.0, 1399.0, 1400.0, 1400.0, 1400.0, 1400.0, 1401.0, 1399.0, 1400.0, 1400.0, 1402.0, 1401.0, 1401.0, 1400.0, 1401.0, 1401.0, 1399.0, 1400.0, 1400.0, 1401.0, 1401.0, 1401.0, 1402.0, 1401.0, 1390.0, 1395.0, 1403.0, 1402.0, 1402.0, 1401.0, 1399.0, 1398.0, 1397.0, 1399.0, 1397.0, 1398.0, 1398.0, 1399.0, 1400.0, 1398.0, 1400.0, 1400.0, 1399.0, 1400.0, 1400.0, 1401.0, 1400.0, 1399.0, 1401.0, 1403.0, 1402.0, 1403.0, 1401.0, 1402.0, 1398.0, 1401.0]
    },
    "slices": {}
  }
}