{
  "AcquisitionMatrixPE": 72,
  "AcquisitionNumber": 1,
  "AcquisitionTime": "16:09:24.112500",
  "BandwidthPerPixelPhaseEncode": 24.366,
  "BaseResolution": 72,
  "BodyPartExamined": "BRAIN",
  "CoilCombinationMethod": "Sum of Squares",
  "ConsistencyInfo": "N4_VE11C_LATEST_20160120",
  "ConversionSoftware": "dcm2niix",
  "ConversionSoftwareVersion": "v1.0.20220720",
  "DerivedVendorReportedEchoSpacing": 0.000570011,
  "DeviceSerialNumber": "45219",
  "DwellTime": 3.5e-06,
  "EchoTime": 0.03,
  "EchoTrainLength": 72,
  "EffectiveEchoSpacing": 0.000570011,
  "FlipAngle": 80,
  "HeudiconvVersion": "1.1.6",
  "ImageComments": "Reference volume for motion correction.",
  "ImageOrientationPatientDICOM": [0.99923, -0.0119639, 0.0373601, 0.00872019, 0.996273, 0.0858088],
  "ImageOrientationText": "Tra>Cor(4.9)>Sag(2.2)",
  "ImageType": [
    "ORIGINAL",
    "PRIMARY",
    "M",
    "ND",
    "NORM",
    "MOCO",
    "MOSAIC"
],
  "ImagingFrequency": 123.182,
  "InPlanePhaseEncodingDirectionDICOM": "COL",
  "InstitutionAddress": "First Avenue 660,New York,NYC,US,10016",
  "InstitutionName": "NYU LANGONE CBI",
  "InstitutionalDepartmentName": "Department",
  "MRAcquisitionType": "2D",
  "MagneticFieldStrength": 3,
  "Manufacturer": "Siemens",
  "ManufacturersModelName": "Skyra",
  "MatrixCoilMode": "SENSE",
  "Modality": "MR",
  "NonlinearGradientCorrection": false,
  "PartialFourier": 1,
  "PatientPosition": "HFS",
  "PercentPhaseFOV": 100,
  "PercentSampling": 100,
  "PhaseEncodingDirection": "j-",
  "PhaseEncodingSteps": 72,
  "PhaseResolution": 1,
  "PixelBandwidth": 1985,
  "ProcedureStepDescription": "MRI BRAIN WITHOUT IV CONTRAST",
  "ProtocolName": "TASK_CD_MoCo",
  "PulseSequenceDetails": "%SiemensSeq%\\ep2d_bold",
  "ReceiveCoilActiveElements": "HE1-4",
  "ReceiveCoilName": "HeadNeck_20",
  "ReconMatrixPE": 72,
  "RepetitionTime": 2.5,
  "SAR": 0.116718,
  "ScanOptions": "FS",
  "ScanningSequence": "EP",
  "SequenceName": "*epfid2d1_72",
  "SequenceVariant": "SK",
  "SeriesDescription": "MoCoSeries",
  "SeriesNumber": 13,
  "ShimSetting": [-822, -6944, 5042, 206, -68, 480, 509, -189],
  "SliceThickness": 3,
  "SliceTiming": [1.24, 0, 1.305, 0.065, 1.37, 0.13, 1.435, 0.1975, 1.5025, 0.2625, 1.5675, 0.3275, 1.6325, 0.3925, 1.6975, 0.4575, 1.7625, 0.5225, 1.8275, 0.5875, 1.8925, 0.6525, 1.9575, 0.7175, 2.0225, 0.7825, 2.09, 0.85, 2.155, 0.915, 2.22, 0.98, 2.285, 1.045, 2.35, 1.11, 2.415, 1.175],
  "SoftwareVersions": "syngo MR E11",
  "SpacingBetweenSlices": 3,
  "StationName": "MRC45219",
  "TaskName": "cd",
  "TotalReadoutTime": 0.0404708,
  "TxRefAmp": 402.191,
  "dcmmeta_affine": [
    [-2.9976906776428223, 0.02616056054830551, 0.11474254727363586, 106.4600601196289],
    [0.03589165583252907, 2.9888203144073486, 0.2562507688999176, -108.5068359375],
    [0.1120803952217102, -0.25742629170417786, 2.986832857131958, -35.04179382324219],
    [0.0, 0.0, 0.0, 1.0]
],
  "dcmmeta_reorient_transform": [
    [0.0, -1.0, 0.0, 71.0],
    [1.0, 0.0, 0.0, 0.0],
    [0.0, 0.0, 1.0, 0.0],
    [0.0, 0.0, 0.0, 1.0]
],
  "dcmmeta_shape": [72, 72, 38, 132],
  "dcmmeta_slice_dim": 2,
  "dcmmeta_version": 0.6,
  "global": {
    "const": {
      "AccessionNumber": "17355688",
      "AcquisitionMatrix": [72, 0, 0, 72],
      "AngioFlag": "N",
      "BitsAllocated": 16,
      "BitsStored": 12,
      "BodyPartExamined": "BRAIN",
      "Columns": 504,
      "CountryOfResidence": "United States of America [1]",
      "EchoNumbers": 1,
      "EchoTime": 30.0,
      "EchoTrainLength": 72,
      "FlipAngle": 80.0,
      "HighBit": 11,
      "ImageOrientationPatient": [0.99923024670498, -0.0119638853974, 0.03736013270981, 0.00872018712902, 0.99627346364981, 0.0858087639093],
      "ImagePositionPatient": [-761.4693442684, -741.53201570145, -133.13250484429],
      "ImageType": [
        "ORIGINAL",
        "PRIMARY",
        "M",
        "ND",
        "NORM",
        "MOCO",
        "MOSAIC"
],
      "ImagedNucleus": "1H",
      "ImagingFrequency": 123.182134,
      "InPlanePhaseEncodingDirection": "COL",
      "MRAcquisitionType": "2D",
      "MagneticFieldStrength": 3.0,
      "Manufacturer": "SIEMENS",
      "ManufacturerModelName": "Skyra",
      "Modality": "MR",
      "NumberOfAverages": 1.0,
      "NumberOfPhaseEncodingSteps": 72,
      "PercentPhaseFieldOfView": 100.0,
      "PercentSampling": 100.0,
      "PerformedProcedureStepStartTime": "154228.653000",
      "PhotometricInterpretation": "MONOCHROME2",
      "PixelBandwidth": 1985.0,
      "PixelRepresentation": 0,
      "PixelSpacing": [3.0, 3.0],
      "PregnancyStatus": 4,
      "ProcedureCodeSequence": [
        {
          "CodeMeaning": "MRI BRAIN WITHOUT IV CONTRAST",
          "CodeValue": "IMG269",
          "CodingSchemeDesignator": "L"
        }
],
      "ProtocolName": "TASK_CD",
      "RepetitionTime": 2500.0,
      "RequestAttributesSequence": [
        {
          "RequestedProcedureID": "320142780",
          "ScheduledProcedureStepDescription": "MRI BRAIN WITHOUT IV CONTRAST",
          "ScheduledProcedureStepID": "E9429891",
          "ScheduledProtocolCodeSequence": [
            {
              "CodeMeaning": "MRI BRAIN WITHOUT IV CONTRAST",
              "CodeValue": "651061",
              "CodingSchemeDesignator": "L"
            }
]
        }
],
      "RequestedProcedureCodeSequence": [
        {
          "CodeMeaning": "MRI BRAIN WITHOUT IV CONTRAST",
          "CodeValue": "IMG269",
          "CodingSchemeDesignator": "L"
        }
],
      "Rows": 504,
      "SAR": 0.11671844298709,
      "SamplesPerPixel": 1,
      "ScanOptions": "FS",
      "ScanningSequence": "EP",
      "SequenceName": "*epfid2d1_72",
      "SequenceVariant": "SK",
      "SeriesDescription": "MoCoSeries",
      "SeriesNumber": 13,
      "SeriesTime": "160935.950000",
      "SliceLocation": -40.084479040673,
      "SliceThickness": 3.0,
      "SmallestImagePixelValue": 0,
      "SmokingStatus": "UNKNOWN",
      "SoftwareVersions": "syngo MR E11",
      "SpacingBetweenSlices": 3.0000000798686,
      "SpecificCharacterSet": "ISO_IR 100",
      "StudyID": "320142780",
      "StudyTime": "154228.513000",
      "TransmitCoilName": "Body",
      "VariableFlipAngleFlag": "N",
      "WindowCenterWidthExplanation": "Algo1",
      "dBdt": 0.0},
    "slices": {}
  },
  "time": {
    "samples": {
      "AcquisitionNumber": [1, 2, 3, 4, 5, 6, 7, 8, 9, 10, 11, 12, 13, 14, 15, 16, 17, 18, 19, 20, 21, 22, 23, 24, 25, 26, 27, 28, 29, 30, 31, 32, 33, 34, 35, 36, 37, 38, 39, 40, 41, 42, 43, 44, 45, 46, 47, 48, 49, 50, 51, 52, 53, 54, 55, 56, 57, 58, 59, 60, 61, 62, 63, 64, 65, 66, 67, 68, 69, 70, 71, 72, 73, 74, 75, 76, 77, 78, 79, 80, 81, 82, 83, 84, 85, 86, 87, 88, 89, 90, 91, 92, 93, 94, 95, 96, 97, 98, 99, 100, 101, 102, 103, 104, 105, 106, 107, 108, 109, 110, 111, 112, 113, 114, 115, 116, 117, 118, 119, 120, 121, 122, 123, 124, 125, 126, 127, 128, 129, 130, 131, 132],
      "AcquisitionTime": ["160924.112500", "160926.612500", "160929.112500", "160931.612500", "160934.112500", "160936.612500", "160939.112500", "160941.612500", "160944.112500", "160946.612500", "160949.112500", "160951.612500", "160954.112500", "160956.612500", "160959.112500", "161001.612500", "161004.112500", "161006.612500", "161009.112500", "161011.612500", "161014.112500", "161016.612500", "161019.112500", "161021.612500", "161024.112500", "161026.612500", "161029.112500", "161031.612500", "161034.112500", "161036.612500", "161039.112500", "161041.612500", "161044.112500", "161046.612500", "161049.112500", "161051.612500", "161054.112500", "161056.612500", "161059.112500", "161101.612500", "161104.112500", "161106.612500", "161109.112500", "161111.612500", "161114.112500", "161116.612500", "161119.112500", "161121.612500", "161124.112500", "161126.612500", "161129.112500", "161131.612500", "161134.112500", "161136.612500", "161139.112500", "161141.612500", "161144.112500", "161146.612500", "161149.112500", "161151.612500", "161154.112500", "161156.612500", "161159.112500", "161201.612500", "161204.112500", "161206.612500", "161209.112500", "161211.612500", "161214.112500", "161216.612500", "161219.112500", "161221.612500", "161224.112500", "161226.612500", "161229.112500", "161231.612500", "161234.112500", "161236.612500", "161239.112500", "161241.612500", "161244.112500", "161246.612500", "161249.112500", "161251.612500", "161254.112500", "161256.612500", "161259.112500", "161301.612500", "161304.112500", "161306.612500", "161309.112500", "161311.612500", "161314.112500", "161316.612500", "161319.112500", "161321.612500", "161324.112500", "161326.612500", "161329.112500", "161331.612500", "161334.112500", "161336.612500", "161339.112500", "161341.612500", "161344.112500", "161346.612500", "161349.112500", "161351.612500", "161354.112500", "161356.612500", "161359.112500", "161401.612500", "161404.112500", "161406.612500", "161409.112500", "161411.612500", "161414.112500", "161416.612500", "161419.112500", "161421.612500", "161424.112500", "161426.612500", "161429.112500", "161431.612500", "161434.112500", "161436.612500", "161439.112500", "161441.612500", "161444.112500", "161446.612500", "161449.112500", "161451.612500"],
      "ContentTime": ["160935.952000", "160935.956000", "160935.960000", "160935.963000", "161036.006000", "161036.009000", "161036.012000", "161036.015000", "161036.018000", "161036.020000", "161036.023000", "161036.026000", "161036.029000", "161036.031000", "161036.034000", "161036.037000", "161036.040000", "161036.043000", "161036.045000", "161036.048000", "161036.051000", "161036.054000", "161036.057000", "161036.059000", "161036.062000", "161036.065000", "161036.068000", "161036.070000", "161136.005000", "161136.008000", "161136.011000", "161136.014000", "161136.016000", "161136.024000", "161136.027000", "161136.029000", "161136.032000", "161136.035000", "161136.038000", "161136.040000", "161136.043000", "161136.046000", "161136.049000", "161136.051000", "161136.054000", "161136.057000", "161136.060000", "161136.062000", "161136.065000", "161136.068000", "161136.070000", "161136.073000", "161236.011000", "161236.014000", "161236.016000", "161236.019000", "161236.022000", "161236.024000", "161236.027000", "161236.030000", "161236.033000", "161236.035000", "161236.038000", "161236.041000", "161236.044000", "161236.046000", "161236.049000", "161236.052000", "161236.055000", "161236.057000", "161236.060000", "161236.063000", "161236.066000", "161236.068000", "161236.071000", "161236.074000", "161336.038000", "161336.041000", "161336.044000", "161336.053000", "161336.055000", "161336.058000", "161336.061000", "161336.064000", "161336.066000", "161336.069000", "161336.072000", "161336.075000", "161336.078000", "161336.080000", "161336.083000", "161336.086000", "161336.089000", "161336.091000", "161336.094000", "161336.097000", "161336.100000", "161336.103000", "161336.105000", "161336.108000", "161436.003000", "161436.006000", "161436.009000", "161436.018000", "161436.021000", "161436.023000", "161436.026000", "161436.029000", "161436.032000", "161436.035000", "161436.038000", "161436.060000", "161436.063000", "161436.066000", "161436.068000", "161436.075000", "161436.086000", "161436.089000", "161436.091000", "161436.094000", "161436.097000", "161436.100000", "161436.102000", "161436.105000", "161453.541000", "161453.545000", "161453.553000", "161453.556000", "161453.565000", "161453.569000", "161453.572000", "161453.575000"],
      "InstanceCreationTime": ["160935.952000", "160935.956000", "160935.960000", "160935.963000", "161036.006000", "161036.009000", "161036.012000", "161036.015000", "161036.018000", "161036.020000", "161036.023000", "161036.026000", "161036.029000", "161036.031000", "161036.034000", "161036.037000", "161036.040000", "161036.043000", "161036.045000", "161036.048000", "161036.051000", "161036.054000", "161036.057000", "161036.059000", "161036.062000", "161036.065000", "161036.068000", "161036.070000", "161136.005000", "161136.008000", "161136.011000", "161136.014000", "161136.016000", "161136.024000", "161136.027000", "161136.029000", "161136.032000", "161136.035000", "161136.038000", "161136.040000", "161136.043000", "161136.046000", "161136.049000", "161136.051000", "161136.054000", "161136.057000", "161136.060000", "161136.062000", "161136.065000", "161136.068000", "161136.070000", "161136.073000", "161236.011000", "161236.014000", "161236.016000", "161236.019000", "161236.022000", "161236.024000", "161236.027000", "161236.030000", "161236.033000", "161236.035000", "161236.038000", "161236.041000", "161236.044000", "161236.046000", "161236.049000", "161236.052000", "161236.055000", "161236.057000", "161236.060000", "161236.063000", "161236.066000", "161236.068000", "161236.071000", "161236.074000", "161336.038000", "161336.041000", "161336.044000", "161336.053000", "161336.055000", "161336.058000", "161336.061000", "161336.064000", "161336.066000", "161336.069000", "161336.072000", "161336.075000", "161336.078000", "161336.080000", "161336.083000", "161336.086000", "161336.089000", "161336.091000", "161336.094000", "161336.097000", "161336.100000", "161336.103000", "161336.105000", "161336.108000", "161436.003000", "161436.006000", "161436.009000", "161436.018000", "161436.021000", "161436.023000", "161436.026000", "161436.029000", "161436.032000", "161436.035000", "161436.038000", "161436.060000", "161436.063000", "161436.066000", "161436.068000", "161436.075000", "161436.086000", "161436.089000", "161436.091000", "161436.094000", "161436.097000", "161436.100000", "161436.102000", "161436.105000", "161453.541000", "161453.545000", "161453.553000", "161453.556000", "161453.565000", "161453.569000", "161453.572000", "161453.575000"],
      "InstanceNumber": [1, 2, 3, 4, 5, 6, 7, 8, 9, 10, 11, 12, 13, 14, 15, 16, 17, 18, 19, 20, 21, 22, 23, 24, 25, 26, 27, 28, 29, 30, 31, 32, 33, 34, 35, 36, 37, 38, 39, 40, 41, 42, 43, 44, 45, 46, 47, 48, 49, 50, 51, 52, 53, 54, 55, 56, 57, 58, 59, 60, 61, 62, 63, 64, 65, 66, 67, 68, 69, 70, 71, 72, 73, 74, 75, 76, 77, 78, 79, 80, 81, 82, 83, 84, 85, 86, 87, 88, 89, 90, 91, 92, 93, 94, 95, 96, 97, 98, 99, 100, 101, 102, 103, 104, 105, 106, 107, 108, 109, 110, 111, 112, 113, 114, 115, 116, 117, 118, 119, 120, 121, 122, 123, 124, 125, 126, 127, 128, 129, 130, 131, 132],
      "LargestImagePixelValue": [1652, 1836, 1830, 1738, 1580, 1606, 1831, 1664, 1673, 1720, 1762, 1917, 1613, 1693, 1773, 1814, 1826, 1622, 1614, 1714, 1619, 1648, 1692, 1622, 1671, 1742, 1716, 1660, 1655, 1635, 1635, 1728, 1772, 1640, 1750, 1602, 1614, 1674, 1715, 1923, 1855, 1604, 1609, 1628, 1640, 1646, 1973, 1591, 1671, 1669, 1894, 1582, 1661, 1664, 1694, 1842, 1582, 1612, 1700, 1665, 1633, 1677, 1782, 1597, 1666, 1611, 1948, 1788, 1598, 1686, 1673, 1789, 1704, 1614, 1672, 1650, 1686, 1603, 1617, 1659, 1658, 1618, 1966, 1673, 1737, 1638, 1629, 1663, 1639, 1618, 1829, 1755, 1608, 1646, 1693, 1854, 1624, 1599, 1597, 1597, 1669, 1729, 1848, 1753, 1685, 1699, 1603, 1607, 1613, 1600, 1604, 1924, 1968, 1615, 1621, 1600, 1817, 1599, 1601, 1591, 1617, 1854, 1786, 1685, 1757, 1674, 1610, 1606, 1652, 1623, 1938, 1923],
      "WindowCenter": [657.0, 656.0, 656.0, 656.0, 655.0, 655.0, 657.0, 655.0, 655.0, 656.0, 656.0, 658.0, 656.0, 655.0, 656.0, 657.0, 656.0, 655.0, 655.0, 656.0, 655.0, 655.0, 655.0, 655.0, 656.0, 656.0, 656.0, 655.0, 655.0, 655.0, 655.0, 655.0, 656.0, 655.0, 656.0, 655.0, 655.0, 655.0, 656.0, 657.0, 656.0, 655.0, 654.0, 655.0, 655.0, 655.0, 658.0, 655.0, 656.0, 655.0, 657.0, 655.0, 655.0, 655.0, 655.0, 656.0, 655.0, 655.0, 656.0, 655.0, 653.0, 657.0, 657.0, 655.0, 655.0, 655.0, 657.0, 655.0, 654.0, 655.0, 655.0, 655.0, 655.0, 654.0, 655.0, 654.0, 655.0, 655.0, 655.0, 655.0, 655.0, 655.0, 658.0, 655.0, 655.0, 654.0, 654.0, 655.0, 655.0, 655.0, 657.0, 656.0, 655.0, 655.0, 656.0, 657.0, 654.0, 653.0, 653.0, 654.0, 654.0, 655.0, 656.0, 655.0, 655.0, 656.0, 655.0, 654.0, 655.0, 654.0, 654.0, 657.0, 657.0, 655.0, 655.0, 655.0, 656.0, 655.0, 655.0, 655.0, 655.0, 657.0, 655.0, 655.0, 655.0, 655.0, 655.0, 655.0, 655.0, 655.0, 657.0, 657.0],
      "WindowWidth": [1401.0, 1399.0, 1399.0, 1398.0, 1396.0, 1396.0, 1400.0, 1397.0, 1397.0, 1398.0, 1399.0, 1402.0, 1398.0, 1397.0, 1397.0, 1399.0, 1399.0, 1395.0, 1396.0, 1398.0, 1395.0, 1395.0, 1396.0, 1396.0, 1399.0, 1398.0, 1397.0, 1395.0, 1396.0, 1397.0, 1396.0, 1396.0, 1398.0, 1396.0, 1398.0, 1396.0, 1396.0, 1397.0, 1398.0, 1402.0, 1399.0, 1396.0, 1394.0, 1396.0, 1396.0, 1397.0, 1402.0, 1397.0, 1398.0, 1396.0, 1400.0, 1395.0, 1397.0, 1396.0, 1397.0, 1399.0, 1396.0, 1396.0, 1398.0, 1396.0, 1393.0, 1402.0, 1401.0, 1397.0, 1397.0, 1395.0, 1400.0, 1396.0, 1393.0, 1395.0, 1396.0, 1397.0, 1396.0, 1395.0, 1395.0, 1394.0, 1396.0, 1396.0, 1397.0, 1397.0, 1397.0, 1396.0, 1402.0, 1397.0, 1396.0, 1394.0, 1394.0, 1396.0, 1397.0, 1397.0, 1400.0, 1399.0, 1396.0, 1396.0, 1400.0, 1401.0, 1394.0, 1392.0, 1392.0, 1393.0, 1394.0, 1396.0, 1398.0, 1397.0, 1397.0, 1398.0, 1396.0, 1395.0, 1395.0, 1395.0, 1395.0, 1400.0, 1400.0, 1397.0, 1396.0, 1396.0, 1399.0, 1396.0, 1396.0, 1396.0, 1396.0, 1399.0, 1396.0, 1395.0, 1397.0, 1397.0, 1397.0, 1395.0, 1396.0, 1396.0, 1401.0, 1400.0]
    },
    "slices": {}
  }
}