{
  "AcquisitionMatrixPE": 72,
  "AcquisitionNumber": 1,
  "AcquisitionTime": "16:03:2.745000",
  "BandwidthPerPixelPhaseEncode": 24.366,
  "BaseResolution": 72,
  "BodyPartExamined": "BRAIN",
  "CoilCombinationMethod": "Sum of Squares",
  "ConsistencyInfo": "N4_VE11C_LATEST_20160120",
  "ConversionSoftware": "dcm2niix",
  "ConversionSoftwareVersion": "v1.0.20220720",
  "DerivedVendorReportedEchoSpacing": 0.000570011,
  "DeviceSerialNumber": "45219",
  "DwellTime": 3.5e-06,
  "EchoTime": 0.03,
  "EchoTrainLength": 72,
  "EffectiveEchoSpacing": 0.000570011,
  "FlipAngle": 80,
  "HeudiconvVersion": "1.1.6",
  "ImageComments": "Reference volume for motion correction.",
  "ImageOrientationPatientDICOM": [0.99923, -0.0119639, 0.0373601, 0.00872019, 0.996273, 0.0858088],
  "ImageOrientationText": "Tra>Cor(4.9)>Sag(2.2)",
  "ImageType": [
    "ORIGINAL",
    "PRIMARY",
    "M",
    "ND",
    "NORM",
    "MOCO",
    "MOSAIC"
],
  "ImagingFrequency": 123.182,
  "InPlanePhaseEncodingDirectionDICOM": "COL",
  "InstitutionAddress": "First Avenue 660,New York,NYC,US,10016",
  "InstitutionName": "NYU LANGONE CBI",
  "InstitutionalDepartmentName": "Department",
  "MRAcquisitionType": "2D",
  "MagneticFieldStrength": 3,
  "Manufacturer": "Siemens",
  "ManufacturersModelName": "Skyra",
  "MatrixCoilMode": "SENSE",
  "Modality": "MR",
  "NonlinearGradientCorrection": false,
  "PartialFourier": 1,
  "PatientPosition": "HFS",
  "PercentPhaseFOV": 100,
  "PercentSampling": 100,
  "PhaseEncodingDirection": "j-",
  "PhaseEncodingSteps": 72,
  "PhaseResolution": 1,
  "PixelBandwidth": 1985,
  "ProcedureStepDescription": "MRI BRAIN WITHOUT IV CONTRAST",
  "ProtocolName": "TASK_AB_MoCo",
  "PulseSequenceDetails": "%SiemensSeq%\\ep2d_bold",
  "ReceiveCoilActiveElements": "HE1-4",
  "ReceiveCoilName": "HeadNeck_20",
  "ReconMatrixPE": 72,
  "RepetitionTime": 2.5,
  "SAR": 0.116718,
  "ScanOptions": "FS",
  "ScanningSequence": "EP",
  "SequenceName": "*epfid2d1_72",
  "SequenceVariant": "SK",
  "SeriesDescription": "MoCoSeries",
  "SeriesNumber": 11,
  "ShimSetting": [-822, -6944, 5042, 206, -68, 480, 509, -189],
  "SliceThickness": 3,
  "SliceTiming": [1.24, 0, 1.305, 0.065, 1.37, 0.13, 1.435, 0.195, 1.5, 0.26, 1.565, 0.325, 1.63, 0.39, 1.695, 0.455, 1.76, 0.52, 1.825, 0.5875, 1.8925, 0.6525, 1.9575, 0.7175, 2.0225, 0.7825, 2.0875, 0.8475, 2.1525, 0.9125, 2.2175, 0.9775, 2.2825, 1.0425, 2.3475, 1.1075, 2.4125, 1.1725],
  "SoftwareVersions": "syngo MR E11",
  "SpacingBetweenSlices": 3,
  "StationName": "MRC45219",
  "TaskName": "ab",
  "TotalReadoutTime": 0.0404708,
  "TxRefAmp": 402.191,
  "dcmmeta_affine": [
    [-2.9976906776428223, 0.02616056054830551, 0.11474254727363586, 106.4600601196289],
    [0.03589165583252907, 2.9888203144073486, 0.2562507688999176, -108.5068359375],
    [0.1120803952217102, -0.25742629170417786, 2.986832857131958, -35.04179382324219],
    [0.0, 0.0, 0.0, 1.0]
],
  "dcmmeta_reorient_transform": [
    [0.0, -1.0, 0.0, 71.0],
    [1.0, 0.0, 0.0, 0.0],
    [0.0, 0.0, 1.0, 0.0],
    [0.0, 0.0, 0.0, 1.0]
],
  "dcmmeta_shape": [72, 72, 38, 132],
  "dcmmeta_slice_dim": 2,
  "dcmmeta_version": 0.6,
  "global": {
    "const": {
      "AccessionNumber": "17355688",
      "AcquisitionMatrix": [72, 0, 0, 72],
      "AngioFlag": "N",
      "BitsAllocated": 16,
      "BitsStored": 12,
      "BodyPartExamined": "BRAIN",
      "Columns": 504,
      "CountryOfResidence": "United States of America [1]",
      "EchoNumbers": 1,
      "EchoTime": 30.0,
      "EchoTrainLength": 72,
      "FlipAngle": 80.0,
      "HighBit": 11,
      "ImageOrientationPatient": [0.99923024670498, -0.0119638853974, 0.03736013270981, 0.00872018712902, 0.99627346364981, 0.0858087639093],
      "ImagePositionPatient": [-761.4693442684, -741.53201570145, -133.13250484429],
      "ImageType": [
        "ORIGINAL",
        "PRIMARY",
        "M",
        "ND",
        "NORM",
        "MOCO",
        "MOSAIC"
],
      "ImagedNucleus": "1H",
      "ImagingFrequency": 123.182105,
      "InPlanePhaseEncodingDirection": "COL",
      "MRAcquisitionType": "2D",
      "MagneticFieldStrength": 3.0,
      "Manufacturer": "SIEMENS",
      "ManufacturerModelName": "Skyra",
      "Modality": "MR",
      "NumberOfAverages": 1.0,
      "NumberOfPhaseEncodingSteps": 72,
      "PercentPhaseFieldOfView": 100.0,
      "PercentSampling": 100.0,
      "PerformedProcedureStepStartTime": "154228.653000",
      "PhotometricInterpretation": "MONOCHROME2",
      "PixelBandwidth": 1985.0,
      "PixelRepresentation": 0,
      "PixelSpacing": [3.0, 3.0],
      "PregnancyStatus": 4,
      "ProcedureCodeSequence": [
        {
          "CodeMeaning": "MRI BRAIN WITHOUT IV CONTRAST",
          "CodeValue": "IMG269",
          "CodingSchemeDesignator": "L"
        }
],
      "ProtocolName": "TASK_AB",
      "RepetitionTime": 2500.0,
      "RequestAttributesSequence": [
        {
          "RequestedProcedureID": "320142780",
          "ScheduledProcedureStepDescription": "MRI BRAIN WITHOUT IV CONTRAST",
          "ScheduledProcedureStepID": "E9429891",
          "ScheduledProtocolCodeSequence": [
            {
              "CodeMeaning": "MRI BRAIN WITHOUT IV CONTRAST",
              "CodeValue": "651061",
              "CodingSchemeDesignator": "L"
            }
]
        }
],
      "RequestedProcedureCodeSequence": [
        {
          "CodeMeaning": "MRI BRAIN WITHOUT IV CONTRAST",
          "CodeValue": "IMG269",
          "CodingSchemeDesignator": "L"
        }
],
      "Rows": 504,
      "SAR": 0.11671844298709,
      "SamplesPerPixel": 1,
      "ScanOptions": "FS",
      "ScanningSequence": "EP",
      "SequenceName": "*epfid2d1_72",
      "SequenceVariant": "SK",
      "SeriesDescription": "MoCoSeries",
      "SeriesNumber": 11,
      "SeriesTime": "160408.224000",
      "SliceLocation": -40.084479040673,
      "SliceThickness": 3.0,
      "SmallestImagePixelValue": 0,
      "SmokingStatus": "UNKNOWN",
      "SoftwareVersions": "syngo MR E11",
      "SpacingBetweenSlices": 3.0000000798686,
      "SpecificCharacterSet": "ISO_IR 100",
      "StudyID": "320142780",
      "StudyTime": "154228.513000",
      "TransmitCoilName": "Body",
      "VariableFlipAngleFlag": "N",
      "WindowCenterWidthExplanation": "Algo1",
      "dBdt": 0.0},
    "slices": {}
  },
  "time": {
    "samples": {
      "AcquisitionNumber": [1, 2, 3, 4, 5, 6, 7, 8, 9, 10, 11, 12, 13, 14, 15, 16, 17, 18, 19, 20, 21, 22, 23, 24, 25, 26, 27, 28, 29, 30, 31, 32, 33, 34, 35, 36, 37, 38, 39, 40, 41, 42, 43, 44, 45, 46, 47, 48, 49, 50, 51, 52, 53, 54, 55, 56, 57, 58, 59, 60, 61, 62, 63, 64, 65, 66, 67, 68, 69, 70, 71, 72, 73, 74, 75, 76, 77, 78, 79, 80, 81, 82, 83, 84, 85, 86, 87, 88, 89, 90, 91, 92, 93, 94, 95, 96, 97, 98, 99, 100, 101, 102, 103, 104, 105, 106, 107, 108, 109, 110, 111, 112, 113, 114, 115, 116, 117, 118, 119, 120, 121, 122, 123, 124, 125, 126, 127, 128, 129, 130, 131, 132],
      "AcquisitionTime": ["160302.745000", "160305.245000", "160307.745000", "160310.245000", "160312.745000", "160315.245000", "160317.745000", "160320.245000", "160322.745000", "160325.245000", "160327.745000", "160330.245000", "160332.745000", "160335.245000", "160337.745000", "160340.245000", "160342.745000", "160345.245000", "160347.745000", "160350.245000", "160352.745000", "160355.245000", "160357.745000", "160400.245000", "160402.745000", "160405.245000", "160407.745000", "160410.245000", "160412.745000", "160415.245000", "160417.745000", "160420.245000", "160422.745000", "160425.245000", "160427.745000", "160430.245000", "160432.745000", "160435.245000", "160437.745000", "160440.245000", "160442.745000", "160445.245000", "160447.745000", "160450.245000", "160452.745000", "160455.245000", "160457.745000", "160500.245000", "160502.745000", "160505.245000", "160507.745000", "160510.245000", "160512.745000", "160515.245000", "160517.745000", "160520.245000", "160522.745000", "160525.245000", "160527.745000", "160530.245000", "160532.745000", "160535.245000", "160537.745000", "160540.245000", "160542.745000", "160545.245000", "160547.745000", "160550.245000", "160552.745000", "160555.245000", "160557.745000", "160600.245000", "160602.745000", "160605.245000", "160607.745000", "160610.245000", "160612.745000", "160615.245000", "160617.745000", "160620.245000", "160622.745000", "160625.245000", "160627.745000", "160630.245000", "160632.745000", "160635.245000", "160637.745000", "160640.245000", "160642.745000", "160645.245000", "160647.745000", "160650.245000", "160652.745000", "160655.245000", "160657.745000", "160700.245000", "160702.745000", "160705.245000", "160707.745000", "160710.245000", "160712.745000", "160715.245000", "160717.745000", "160720.245000", "160722.745000", "160725.245000", "160727.745000", "160730.245000", "160732.745000", "160735.245000", "160737.745000", "160740.245000", "160742.745000", "160745.245000", "160747.745000", "160750.245000", "160752.745000", "160755.245000", "160757.745000", "160800.245000", "160802.745000", "160805.245000", "160807.745000", "160810.245000", "160812.745000", "160815.245000", "160817.745000", "160820.245000", "160822.745000", "160825.245000", "160827.745000", "160830.245000"],
      "ContentTime": ["160408.226000", "160408.245000", "160408.255000", "160408.258000", "160408.261000", "160408.263000", "160408.266000", "160408.269000", "160408.272000", "160408.274000", "160408.277000", "160408.280000", "160408.282000", "160408.285000", "160408.288000", "160408.291000", "160408.294000", "160408.297000", "160408.299000", "160408.302000", "160408.305000", "160408.308000", "160408.310000", "160408.313000", "160408.316000", "160408.319000", "160508.196000", "160508.199000", "160508.202000", "160508.204000", "160508.207000", "160508.210000", "160508.213000", "160508.215000", "160508.218000", "160508.227000", "160508.230000", "160508.232000", "160508.235000", "160508.238000", "160508.241000", "160508.243000", "160508.246000", "160508.249000", "160508.252000", "160508.254000", "160508.257000", "160508.260000", "160508.263000", "160508.266000", "160608.206000", "160608.209000", "160608.211000", "160608.214000", "160608.217000", "160608.220000", "160608.223000", "160608.225000", "160608.228000", "160608.231000", "160608.234000", "160608.236000", "160608.239000", "160608.242000", "160608.245000", "160608.247000", "160608.250000", "160608.253000", "160608.256000", "160608.259000", "160608.261000", "160608.264000", "160608.267000", "160608.270000", "160708.318000", "160708.349000", "160708.352000", "160708.354000", "160708.357000", "160708.360000", "160708.363000", "160708.365000", "160708.368000", "160708.371000", "160708.374000", "160708.376000", "160708.379000", "160708.382000", "160708.385000", "160708.387000", "160708.390000", "160708.393000", "160708.396000", "160708.398000", "160708.401000", "160708.404000", "160708.407000", "160708.409000", "160808.198000", "160808.201000", "160808.204000", "160808.206000", "160808.209000", "160808.212000", "160808.215000", "160808.217000", "160808.220000", "160808.223000", "160808.226000", "160808.228000", "160808.231000", "160808.234000", "160808.237000", "160808.239000", "160808.242000", "160808.245000", "160808.248000", "160808.251000", "160808.253000", "160808.256000", "160808.259000", "160808.262000", "160831.661000", "160831.676000", "160831.679000", "160831.682000", "160831.685000", "160831.688000", "160831.691000", "160831.694000", "160831.697000", "160831.700000"],
      "InstanceCreationTime": ["160408.226000", "160408.245000", "160408.255000", "160408.258000", "160408.261000", "160408.263000", "160408.266000", "160408.269000", "160408.272000", "160408.274000", "160408.277000", "160408.280000", "160408.282000", "160408.285000", "160408.288000", "160408.291000", "160408.294000", "160408.297000", "160408.299000", "160408.302000", "160408.305000", "160408.308000", "160408.310000", "160408.313000", "160408.316000", "160408.319000", "160508.196000", "160508.199000", "160508.202000", "160508.204000", "160508.207000", "160508.210000", "160508.213000", "160508.215000", "160508.218000", "160508.227000", "160508.230000", "160508.232000", "160508.235000", "160508.238000", "160508.241000", "160508.243000", "160508.246000", "160508.249000", "160508.252000", "160508.254000", "160508.257000", "160508.260000", "160508.263000", "160508.266000", "160608.206000", "160608.209000", "160608.211000", "160608.214000", "160608.217000", "160608.220000", "160608.223000", "160608.225000", "160608.228000", "160608.231000", "160608.234000", "160608.236000", "160608.239000", "160608.242000", "160608.245000", "160608.247000", "160608.250000", "160608.253000", "160608.256000", "160608.259000", "160608.261000", "160608.264000", "160608.267000", "160608.270000", "160708.318000", "160708.349000", "160708.352000", "160708.354000", "160708.357000", "160708.360000", "160708.363000", "160708.365000", "160708.368000", "160708.371000", "160708.374000", "160708.376000", "160708.379000", "160708.382000", "160708.385000", "160708.387000", "160708.390000", "160708.393000", "160708.396000", "160708.398000", "160708.401000", "160708.404000", "160708.407000", "160708.409000", "160808.198000", "160808.201000", "160808.204000", "160808.206000", "160808.209000", "160808.212000", "160808.215000", "160808.217000", "160808.220000", "160808.223000", "160808.226000", "160808.228000", "160808.231000", "160808.234000", "160808.237000", "160808.239000", "160808.242000", "160808.245000", "160808.248000", "160808.251000", "160808.253000", "160808.256000", "160808.259000", "160808.262000", "160831.661000", "160831.676000", "160831.679000", "160831.682000", "160831.685000", "160831.688000", "160831.691000", "160831.694000", "160831.697000", "160831.700000"],
      "InstanceNumber": [1, 2, 3, 4, 5, 6, 7, 8, 9, 10, 11, 12, 13, 14, 15, 16, 17, 18, 19, 20, 21, 22, 23, 24, 25, 26, 27, 28, 29, 30, 31, 32, 33, 34, 35, 36, 37, 38, 39, 40, 41, 42, 43, 44, 45, 46, 47, 48, 49, 50, 51, 52, 53, 54, 55, 56, 57, 58, 59, 60, 61, 62, 63, 64, 65, 66, 67, 68, 69, 70, 71, 72, 73, 74, 75, 76, 77, 78, 79, 80, 81, 82, 83, 84, 85, 86, 87, 88, 89, 90, 91, 92, 93, 94, 95, 96, 97, 98, 99, 100, 101, 102, 103, 104, 105, 106, 107, 108, 109, 110, 111, 112, 113, 114, 115, 116, 117, 118, 119, 120, 121, 122, 123, 124, 125, 126, 127, 128, 129, 130, 131, 132],
      "LargestImagePixelValue": [1722, 1782, 1900, 1638, 1717, 1642, 1624, 1636, 1663, 1762, 1694, 1829, 1653, 1737, 1679, 1669, 1666, 1644, 1661, 1637, 1658, 1646, 1658, 1654, 1648, 1646, 1641, 1674, 1741, 1629, 1640, 1741, 1664, 1730, 1636, 1640, 1628, 1737, 1636, 1735, 1640, 1694, 1662, 1650, 1674, 1628, 1683, 1644, 1670, 1641, 1661, 1631, 1714, 1650, 1678, 1620, 1631, 1619, 1743, 1638, 1646, 1636, 1698, 1627, 1619, 1654, 1657, 1711, 1626, 1640, 1638, 1630, 1656, 1670, 1708, 1699, 1631, 1631, 1706, 1636, 1630, 1660, 1648, 1683, 1738, 1722, 1694, 1704, 1665, 1634, 1710, 1707, 1635, 1659, 1626, 1624, 1641, 1744, 1583, 1647, 1613, 1597, 1680, 1717, 1678, 1638, 1703, 1633, 1670, 1671, 1739, 1677, 1666, 1669, 1660, 1623, 1609, 1640, 1647, 1641, 1686, 1709, 1616, 1637, 1668, 1649, 1604, 1723, 1641, 1603, 1606, 1606],
      "WindowCenter": [659.0, 658.0, 657.0, 656.0, 656.0, 656.0, 656.0, 657.0, 657.0, 658.0, 658.0, 659.0, 657.0, 657.0, 656.0, 656.0, 656.0, 657.0, 657.0, 656.0, 657.0, 657.0, 656.0, 656.0, 656.0, 656.0, 656.0, 658.0, 658.0, 657.0, 657.0, 657.0, 656.0, 657.0, 656.0, 656.0, 656.0, 657.0, 657.0, 658.0, 656.0, 656.0, 656.0, 656.0, 656.0, 656.0, 657.0, 657.0, 657.0, 656.0, 656.0, 656.0, 657.0, 657.0, 657.0, 657.0, 658.0, 657.0, 657.0, 656.0, 656.0, 656.0, 656.0, 656.0, 656.0, 656.0, 656.0, 657.0, 656.0, 656.0, 656.0, 656.0, 656.0, 656.0, 656.0, 656.0, 656.0, 656.0, 656.0, 656.0, 656.0, 655.0, 656.0, 656.0, 656.0, 657.0, 657.0, 657.0, 656.0, 656.0, 656.0, 656.0, 655.0, 656.0, 655.0, 656.0, 651.0, 656.0, 656.0, 657.0, 656.0, 655.0, 656.0, 657.0, 656.0, 656.0, 657.0, 656.0, 656.0, 656.0, 657.0, 657.0, 656.0, 656.0, 657.0, 656.0, 656.0, 656.0, 657.0, 657.0, 658.0, 657.0, 657.0, 657.0, 657.0, 656.0, 655.0, 656.0, 656.0, 656.0, 656.0, 655.0],
      "WindowWidth": [1408.0, 1404.0, 1403.0, 1399.0, 1400.0, 1400.0, 1399.0, 1401.0, 1403.0, 1405.0, 1405.0, 1407.0, 1402.0, 1402.0, 1400.0, 1400.0, 1400.0, 1401.0, 1400.0, 1400.0, 1401.0, 1401.0, 1400.0, 1399.0, 1399.0, 1400.0, 1400.0, 1403.0, 1404.0, 1401.0, 1401.0, 1402.0, 1401.0, 1401.0, 1398.0, 1399.0, 1399.0, 1402.0, 1401.0, 1403.0, 1400.0, 1400.0, 1400.0, 1400.0, 1400.0, 1399.0, 1401.0, 1401.0, 1402.0, 1400.0, 1399.0, 1399.0, 1400.0, 1401.0, 1402.0, 1402.0, 1404.0, 1402.0, 1402.0, 1399.0, 1400.0, 1400.0, 1400.0, 1399.0, 1399.0, 1399.0, 1399.0, 1401.0, 1400.0, 1400.0, 1399.0, 1399.0, 1399.0, 1400.0, 1400.0, 1399.0, 1398.0, 1399.0, 1400.0, 1400.0, 1399.0, 1398.0, 1398.0, 1399.0, 1400.0, 1402.0, 1403.0, 1402.0, 1399.0, 1398.0, 1399.0, 1399.0, 1398.0, 1398.0, 1398.0, 1399.0, 1387.0, 1399.0, 1400.0, 1401.0, 1399.0, 1398.0, 1400.0, 1401.0, 1400.0, 1400.0, 1403.0, 1400.0, 1400.0, 1400.0, 1403.0, 1401.0, 1400.0, 1400.0, 1402.0, 1400.0, 1400.0, 1400.0, 1401.0, 1402.0, 1403.0, 1402.0, 1403.0, 1402.0, 1401.0, 1399.0, 1398.0, 1399.0, 1399.0, 1399.0, 1399.0, 1398.0]
    },
    "slices": {}
  }
}