{
  "AcquisitionMatrixPE": 72,
  "AcquisitionNumber": 1,
  "AcquisitionTime": "15:57:16.055000",
  "BandwidthPerPixelPhaseEncode": 24.366,
  "BaseResolution": 72,
  "BodyPartExamined": "BRAIN",
  "CoilCombinationMethod": "Sum of Squares",
  "ConsistencyInfo": "N4_VE11C_LATEST_20160120",
  "ConversionSoftware": "dcm2niix",
  "ConversionSoftwareVersion": "v1.0.20220720",
  "DerivedVendorReportedEchoSpacing": 0.000570011,
  "DeviceSerialNumber": "45219",
  "DwellTime": 3.5e-06,
  "EchoTime": 0.03,
  "EchoTrainLength": 72,
  "EffectiveEchoSpacing": 0.000570011,
  "FlipAngle": 80,
  "HeudiconvVersion": "1.1.6",
  "ImageOrientationPatientDICOM": [0.99923, -0.0119639, 0.0373601, 0.00872019, 0.996273, 0.0858088],
  "ImageOrientationText": "Tra>Cor(4.9)>Sag(2.2)",
  "ImageType": [
    "ORIGINAL",
    "PRIMARY",
    "M",
    "ND",
    "NORM",
    "MOSAIC"
],
  "ImagingFrequency": 123.182,
  "InPlanePhaseEncodingDirectionDICOM": "COL",
  "InstitutionAddress": "First Avenue 660,New York,NYC,US,10016",
  "InstitutionName": "NYU LANGONE CBI",
  "InstitutionalDepartmentName": "Department",
  "MRAcquisitionType": "2D",
  "MagneticFieldStrength": 3,
  "Manufacturer": "Siemens",
  "ManufacturersModelName": "Skyra",
  "MatrixCoilMode": "SENSE",
  "Modality": "MR",
  "NonlinearGradientCorrection": false,
  "PartialFourier": 1,
  "PatientPosition": "HFS",
  "PercentPhaseFOV": 100,
  "PercentSampling": 100,
  "PhaseEncodingDirection": "j-",
  "PhaseEncodingSteps": 72,
  "PhaseResolution": 1,
  "PixelBandwidth": 1985,
  "ProcedureStepDescription": "MRI BRAIN WITHOUT IV CONTRAST",
  "ProtocolName": "REST_2",
  "PulseSequenceDetails": "%SiemensSeq%\\ep2d_bold",
  "ReceiveCoilActiveElements": "HE1-4",
  "ReceiveCoilName": "HeadNeck_20",
  "ReconMatrixPE": 72,
  "RepetitionTime": 2.5,
  "SAR": 0.116677,
  "ScanOptions": "FS",
  "ScanningSequence": "EP",
  "SequenceName": "*epfid2d1_72",
  "SequenceVariant": "SK",
  "SeriesDescription": "REST_2",
  "SeriesNumber": 8,
  "ShimSetting": [-822, -6944, 5042, 206, -68, 480, 509, -189],
  "SliceThickness": 3,
  "SliceTiming": [1.24, 0, 1.305, 0.065, 1.3725, 0.1325, 1.4375, 0.1975, 1.5025, 0.2625, 1.5675, 0.3275, 1.6325, 0.3925, 1.6975, 0.4575, 1.7625, 0.5225, 1.8275, 0.5875, 1.8925, 0.6525, 1.9575, 0.7175, 2.025, 0.785, 2.09, 0.85, 2.155, 0.915, 2.22, 0.98, 2.285, 1.045, 2.35, 1.11, 2.415, 1.175],
  "SoftwareVersions": "syngo MR E11",
  "SpacingBetweenSlices": 3,
  "StationName": "MRC45219",
  "TaskName": "rest",
  "TotalReadoutTime": 0.0404708,
  "TxRefAmp": 402.191,
  "dcmmeta_affine": [
    [-2.9976906776428223, 0.02616056054830551, 0.11474254727363586, 106.4600601196289],
    [0.03589165583252907, 2.9888203144073486, 0.2562507688999176, -108.5068359375],
    [0.1120803952217102, -0.25742629170417786, 2.986832857131958, -35.04179382324219],
    [0.0, 0.0, 0.0, 1.0]
],
  "dcmmeta_reorient_transform": [
    [0.0, -1.0, 0.0, 71.0],
    [1.0, 0.0, 0.0, 0.0],
    [0.0, 0.0, 1.0, 0.0],
    [0.0, 0.0, 0.0, 1.0]
],
  "dcmmeta_shape": [72, 72, 38, 122],
  "dcmmeta_slice_dim": 2,
  "dcmmeta_version": 0.6,
  "global": {
    "const": {
      "AccessionNumber": "17355688",
      "AcquisitionMatrix": [72, 0, 0, 72],
      "AngioFlag": "N",
      "BitsAllocated": 16,
      "BitsStored": 12,
      "BodyPartExamined": "BRAIN",
      "Columns": 504,
      "CountryOfResidence": "United States of America [1]",
      "EchoNumbers": 1,
      "EchoTime": 30.0,
      "EchoTrainLength": 72,
      "FlipAngle": 80.0,
      "HighBit": 11,
      "ImageOrientationPatient": [0.99923024670498, -0.0119638853974, 0.03736013270981, 0.00872018712902, 0.99627346364981, 0.0858087639093],
      "ImagePositionPatient": [-761.4693442684, -741.53201570145, -133.13250484429],
      "ImageType": [
        "ORIGINAL",
        "PRIMARY",
        "M",
        "ND",
        "NORM",
        "MOSAIC"
],
      "ImagedNucleus": "1H",
      "ImagingFrequency": 123.182081,
      "InPlanePhaseEncodingDirection": "COL",
      "MRAcquisitionType": "2D",
      "MagneticFieldStrength": 3.0,
      "Manufacturer": "SIEMENS",
      "ManufacturerModelName": "Skyra",
      "Modality": "MR",
      "NumberOfAverages": 1.0,
      "NumberOfPhaseEncodingSteps": 72,
      "PercentPhaseFieldOfView": 100.0,
      "PercentSampling": 100.0,
      "PerformedProcedureStepStartTime": "154228.653000",
      "PhotometricInterpretation": "MONOCHROME2",
      "PixelBandwidth": 1985.0,
      "PixelRepresentation": 0,
      "PixelSpacing": [3.0, 3.0],
      "PregnancyStatus": 4,
      "ProcedureCodeSequence": [
        {
          "CodeMeaning": "MRI BRAIN WITHOUT IV CONTRAST",
          "CodeValue": "IMG269",
          "CodingSchemeDesignator": "L"
        }
],
      "ProtocolName": "REST_2",
      "RepetitionTime": 2500.0,
      "RequestAttributesSequence": [
        {
          "RequestedProcedureID": "320142780",
          "ScheduledProcedureStepDescription": "MRI BRAIN WITHOUT IV CONTRAST",
          "ScheduledProcedureStepID": "E9429891",
          "ScheduledProtocolCodeSequence": [
            {
              "CodeMeaning": "MRI BRAIN WITHOUT IV CONTRAST",
              "CodeValue": "651061",
              "CodingSchemeDesignator": "L"
            }
]
        }
],
      "RequestedProcedureCodeSequence": [
        {
          "CodeMeaning": "MRI BRAIN WITHOUT IV CONTRAST",
          "CodeValue": "IMG269",
          "CodingSchemeDesignator": "L"
        }
],
      "Rows": 504,
      "SAR": 0.11667650216489,
      "SamplesPerPixel": 1,
      "ScanOptions": "FS",
      "ScanningSequence": "EP",
      "SequenceName": "*epfid2d1_72",
      "SequenceVariant": "SK",
      "SeriesDescription": "REST_2",
      "SeriesNumber": 8,
      "SeriesTime": "155820.260000",
      "SliceLocation": -40.084479040673,
      "SliceThickness": 3.0,
      "SmallestImagePixelValue": 0,
      "SmokingStatus": "UNKNOWN",
      "SoftwareVersions": "syngo MR E11",
      "SpacingBetweenSlices": 3.0000000798686,
      "SpecificCharacterSet": "ISO_IR 100",
      "StudyID": "320142780",
      "StudyTime": "154228.513000",
      "TransmitCoilName": "Body",
      "VariableFlipAngleFlag": "N",
      "WindowCenterWidthExplanation": "Algo1",
      "dBdt": 0.0},
    "slices": {}
  },
  "time": {
    "samples": {
      "AcquisitionNumber": [1, 2, 3, 4, 5, 6, 7, 8, 9, 10, 11, 12, 13, 14, 15, 16, 17, 18, 19, 20, 21, 22, 23, 24, 25, 26, 27, 28, 29, 30, 31, 32, 33, 34, 35, 36, 37, 38, 39, 40, 41, 42, 43, 44, 45, 46, 47, 48, 49, 50, 51, 52, 53, 54, 55, 56, 57, 58, 59, 60, 61, 62, 63, 64, 65, 66, 67, 68, 69, 70, 71, 72, 73, 74, 75, 76, 77, 78, 79, 80, 81, 82, 83, 84, 85, 86, 87, 88, 89, 90, 91, 92, 93, 94, 95, 96, 97, 98, 99, 100, 101, 102, 103, 104, 105, 106, 107, 108, 109, 110, 111, 112, 113, 114, 115, 116, 117, 118, 119, 120, 121, 122],
      "AcquisitionTime": ["155716.055000", "155718.555000", "155721.055000", "155723.555000", "155726.055000", "155728.555000", "155731.055000", "155733.555000", "155736.055000", "155738.555000", "155741.055000", "155743.555000", "155746.055000", "155748.555000", "155751.055000", "155753.555000", "155756.055000", "155758.555000", "155801.055000", "155803.555000", "155806.055000", "155808.555000", "155811.055000", "155813.555000", "155816.055000", "155818.555000", "155821.055000", "155823.555000", "155826.055000", "155828.555000", "155831.055000", "155833.555000", "155836.055000", "155838.555000", "155841.055000", "155843.555000", "155846.055000", "155848.555000", "155851.055000", "155853.555000", "155856.055000", "155858.555000", "155901.055000", "155903.555000", "155906.055000", "155908.555000", "155911.055000", "155913.555000", "155916.055000", "155918.555000", "155921.055000", "155923.555000", "155926.055000", "155928.555000", "155931.055000", "155933.555000", "155936.055000", "155938.555000", "155941.055000", "155943.555000", "155946.055000", "155948.555000", "155951.055000", "155953.555000", "155956.055000", "155958.555000", "160001.055000", "160003.555000", "160006.055000", "160008.555000", "160011.055000", "160013.555000", "160016.055000", "160018.555000", "160021.055000", "160023.555000", "160026.055000", "160028.555000", "160031.055000", "160033.555000", "160036.055000", "160038.555000", "160041.055000", "160043.555000", "160046.055000", "160048.555000", "160051.055000", "160053.555000", "160056.055000", "160058.555000", "160101.055000", "160103.555000", "160106.055000", "160108.555000", "160111.055000", "160113.555000", "160116.055000", "160118.555000", "160121.055000", "160123.555000", "160126.055000", "160128.555000", "160131.055000", "160133.555000", "160136.055000", "160138.555000", "160141.055000", "160143.555000", "160146.055000", "160148.555000", "160151.055000", "160153.555000", "160156.055000", "160158.555000", "160201.055000", "160203.555000", "160206.055000", "160208.555000", "160211.055000", "160213.555000", "160216.055000", "160218.555000"],
      "ContentTime": ["155820.264000", "155820.267000", "155820.270000", "155820.278000", "155820.281000", "155820.283000", "155820.286000", "155820.289000", "155820.291000", "155820.294000", "155820.297000", "155820.299000", "155820.302000", "155820.305000", "155820.307000", "155820.310000", "155820.313000", "155820.316000", "155820.318000", "155820.321000", "155820.324000", "155820.326000", "155820.329000", "155820.332000", "155820.334000", "155820.337000", "155840.259000", "155840.262000", "155840.264000", "155840.267000", "155840.270000", "155840.272000", "155840.275000", "155840.278000", "155940.259000", "155940.261000", "155940.264000", "155940.267000", "155940.270000", "155940.272000", "155940.275000", "155940.278000", "155940.280000", "155940.283000", "155940.286000", "155940.289000", "155940.291000", "155940.294000", "155940.297000", "155940.299000", "155940.302000", "155940.304000", "155940.307000", "155940.310000", "155940.312000", "155940.315000", "155940.318000", "155940.321000", "160040.259000", "160040.266000", "160040.269000", "160040.272000", "160040.274000", "160040.277000", "160040.280000", "160040.283000", "160040.285000", "160040.288000", "160040.291000", "160040.293000", "160040.296000", "160040.299000", "160040.301000", "160040.304000", "160040.307000", "160040.309000", "160040.312000", "160040.315000", "160040.317000", "160040.320000", "160040.323000", "160040.325000", "160140.260000", "160140.263000", "160140.265000", "160140.268000", "160140.271000", "160140.274000", "160140.276000", "160140.279000", "160140.281000", "160140.284000", "160140.287000", "160140.289000", "160140.292000", "160140.295000", "160140.298000", "160140.300000", "160140.303000", "160140.306000", "160140.309000", "160140.311000", "160140.314000", "160140.317000", "160140.319000", "160140.322000", "160220.213000", "160220.223000", "160220.226000", "160220.229000", "160220.231000", "160220.234000", "160220.237000", "160220.240000", "160220.243000", "160220.247000", "160220.252000", "160220.258000", "160220.261000", "160220.266000", "160220.271000", "160220.274000"],
      "InstanceCreationTime": ["155820.264000", "155820.267000", "155820.270000", "155820.278000", "155820.281000", "155820.283000", "155820.286000", "155820.289000", "155820.291000", "155820.294000", "155820.297000", "155820.299000", "155820.302000", "155820.305000", "155820.307000", "155820.310000", "155820.313000", "155820.316000", "155820.318000", "155820.321000", "155820.324000", "155820.326000", "155820.329000", "155820.332000", "155820.334000", "155820.337000", "155840.259000", "155840.262000", "155840.264000", "155840.267000", "155840.270000", "155840.272000", "155840.275000", "155840.278000", "155940.259000", "155940.261000", "155940.264000", "155940.267000", "155940.270000", "155940.272000", "155940.275000", "155940.278000", "155940.280000", "155940.283000", "155940.286000", "155940.289000", "155940.291000", "155940.294000", "155940.297000", "155940.299000", "155940.302000", "155940.304000", "155940.307000", "155940.310000", "155940.312000", "155940.315000", "155940.318000", "155940.321000", "160040.259000", "160040.266000", "160040.269000", "160040.272000", "160040.274000", "160040.277000", "160040.280000", "160040.283000", "160040.285000", "160040.288000", "160040.291000", "160040.293000", "160040.296000", "160040.299000", "160040.301000", "160040.304000", "160040.307000", "160040.309000", "160040.312000", "160040.315000", "160040.317000", "160040.320000", "160040.323000", "160040.325000", "160140.260000", "160140.263000", "160140.265000", "160140.268000", "160140.271000", "160140.274000", "160140.276000", "160140.279000", "160140.281000", "160140.284000", "160140.287000", "160140.289000", "160140.292000", "160140.295000", "160140.298000", "160140.300000", "160140.303000", "160140.306000", "160140.309000", "160140.311000", "160140.314000", "160140.317000", "160140.319000", "160140.322000", "160220.213000", "160220.223000", "160220.226000", "160220.229000", "160220.231000", "160220.234000", "160220.237000", "160220.240000", "160220.243000", "160220.247000", "160220.252000", "160220.258000", "160220.261000", "160220.266000", "160220.271000", "160220.274000"],
      "InstanceNumber": [1, 2, 3, 4, 5, 6, 7, 8, 9, 10, 11, 12, 13, 14, 15, 16, 17, 18, 19, 20, 21, 22, 23, 24, 25, 26, 27, 28, 29, 30, 31, 32, 33, 34, 35, 36, 37, 38, 39, 40, 41, 42, 43, 44, 45, 46, 47, 48, 49, 50, 51, 52, 53, 54, 55, 56, 57, 58, 59, 60, 61, 62, 63, 64, 65, 66, 67, 68, 69, 70, 71, 72, 73, 74, 75, 76, 77, 78, 79, 80, 81, 82, 83, 84, 85, 86, 87, 88, 89, 90, 91, 92, 93, 94, 95, 96, 97, 98, 99, 100, 101, 102, 103, 104, 105, 106, 107, 108, 109, 110, 111, 112, 113, 114, 115, 116, 117, 118, 119, 120, 121, 122],
      "LargestImagePixelValue": [1716, 1650, 1625, 1619, 1639, 1623, 1711, 1598, 1632, 1614, 1657, 1663, 1600, 1636, 1618, 1613, 1611, 1697, 1661, 1663, 1618, 1618, 1607, 1609, 1625, 1605, 1644, 1634, 1628, 1614, 1706, 1652, 1775, 1635, 1610, 1793, 1626, 1646, 1693, 1763, 1605, 1612, 1624, 1631, 1604, 1612, 1631, 1606, 1613, 1610, 1606, 1683, 1599, 1608, 1665, 1652, 1738, 1639, 1613, 1608, 1689, 1759, 1620, 1615, 1645, 1679, 1670, 1647, 1633, 1762, 1619, 1661, 1671, 1660, 1593, 1617, 1635, 1711, 1764, 1616, 1631, 1610, 1747, 1624, 1599, 1686, 1792, 1619, 1603, 1621, 1635, 1631, 1624, 1633, 1649, 1619, 1636, 1654, 1624, 1619, 1623, 1655, 1732, 1663, 1639, 1634, 1616, 1726, 1642, 1612, 1640, 1604, 1644, 1639, 1684, 1693, 1637, 1611, 1670, 1638, 1625, 1629],
      "WindowCenter": [657.0, 654.0, 653.0, 653.0, 653.0, 654.0, 654.0, 653.0, 654.0, 654.0, 655.0, 655.0, 654.0, 654.0, 653.0, 654.0, 654.0, 655.0, 655.0, 655.0, 655.0, 655.0, 654.0, 655.0, 655.0, 654.0, 656.0, 656.0, 654.0, 654.0, 655.0, 656.0, 656.0, 655.0, 655.0, 657.0, 655.0, 655.0, 656.0, 656.0, 655.0, 656.0, 656.0, 656.0, 655.0, 655.0, 656.0, 655.0, 655.0, 655.0, 655.0, 655.0, 654.0, 654.0, 655.0, 655.0, 656.0, 655.0, 655.0, 654.0, 655.0, 656.0, 655.0, 655.0, 655.0, 655.0, 655.0, 654.0, 654.0, 655.0, 654.0, 654.0, 655.0, 654.0, 654.0, 654.0, 655.0, 656.0, 655.0, 654.0, 654.0, 655.0, 656.0, 655.0, 655.0, 656.0, 656.0, 654.0, 654.0, 654.0, 654.0, 654.0, 654.0, 654.0, 654.0, 654.0, 655.0, 655.0, 655.0, 656.0, 655.0, 655.0, 656.0, 656.0, 656.0, 656.0, 656.0, 656.0, 655.0, 655.0, 654.0, 654.0, 655.0, 655.0, 655.0, 655.0, 655.0, 655.0, 656.0, 655.0, 655.0, 655.0],
      "WindowWidth": [1403.0, 1396.0, 1394.0, 1392.0, 1392.0, 1393.0, 1394.0, 1392.0, 1394.0, 1394.0, 1396.0, 1396.0, 1396.0, 1395.0, 1393.0, 1394.0, 1394.0, 1398.0, 1397.0, 1397.0, 1396.0, 1396.0, 1396.0, 1397.0, 1396.0, 1396.0, 1399.0, 1399.0, 1395.0, 1395.0, 1398.0, 1398.0, 1400.0, 1397.0, 1398.0, 1401.0, 1398.0, 1398.0, 1398.0, 1400.0, 1397.0, 1399.0, 1401.0, 1399.0, 1396.0, 1397.0, 1399.0, 1398.0, 1397.0, 1397.0, 1396.0, 1397.0, 1395.0, 1395.0, 1397.0, 1397.0, 1399.0, 1397.0, 1396.0, 1396.0, 1397.0, 1399.0, 1397.0, 1398.0, 1398.0, 1397.0, 1396.0, 1395.0, 1395.0, 1397.0, 1394.0, 1395.0, 1397.0, 1395.0, 1394.0, 1395.0, 1396.0, 1398.0, 1398.0, 1394.0, 1395.0, 1396.0, 1400.0, 1397.0, 1397.0, 1400.0, 1400.0, 1396.0, 1394.0, 1395.0, 1395.0, 1395.0, 1394.0, 1395.0, 1395.0, 1394.0, 1396.0, 1398.0, 1398.0, 1399.0, 1398.0, 1398.0, 1400.0, 1399.0, 1398.0, 1398.0, 1398.0, 1399.0, 1397.0, 1397.0, 1395.0, 1394.0, 1397.0, 1396.0, 1396.0, 1397.0, 1397.0, 1397.0, 1398.0, 1398.0, 1397.0, 1397.0]
    },
    "slices": {}
  }
}