{
  "AcquisitionMatrixPE": 72,
  "AcquisitionNumber": 1,
  "AcquisitionTime": "21:12:40.637500",
  "BandwidthPerPixelPhaseEncode": 24.366,
  "BaseResolution": 72,
  "BodyPartExamined": "BRAIN",
  "CoilCombinationMethod": "Sum of Squares",
  "ConsistencyInfo": "N4_VE11C_LATEST_20160120",
  "ConversionSoftware": "dcm2niix",
  "ConversionSoftwareVersion": "v1.0.20220720",
  "DerivedVendorReportedEchoSpacing": 0.000570011,
  "DeviceSerialNumber": "45219",
  "DwellTime": 3.5e-06,
  "EchoTime": 0.03,
  "EchoTrainLength": 72,
  "EffectiveEchoSpacing": 0.000570011,
  "FlipAngle": 80,
  "HeudiconvVersion": "1.1.6",
  "ImageComments": "Reference volume for motion correction.",
  "ImageOrientationPatientDICOM": [1, 0, 0, 0, 0.971961, 0.235142],
  "ImageOrientationText": "Tra>Cor(13.6)",
  "ImageType": [
    "ORIGINAL",
    "PRIMARY",
    "M",
    "ND",
    "NORM",
    "MOCO",
    "MOSAIC"
],
  "ImagingFrequency": 123.182,
  "InPlanePhaseEncodingDirectionDICOM": "COL",
  "InstitutionAddress": "First Avenue 660,New York,NYC,US,10016",
  "InstitutionName": "NYU LANGONE CBI",
  "InstitutionalDepartmentName": "Department",
  "MRAcquisitionType": "2D",
  "MagneticFieldStrength": 3,
  "Manufacturer": "Siemens",
  "ManufacturersModelName": "Skyra",
  "MatrixCoilMode": "SENSE",
  "Modality": "MR",
  "NonlinearGradientCorrection": false,
  "PartialFourier": 1,
  "PatientPosition": "HFS",
  "PercentPhaseFOV": 100,
  "PercentSampling": 100,
  "PhaseEncodingDirection": "j-",
  "PhaseEncodingSteps": 72,
  "PhaseResolution": 1,
  "PixelBandwidth": 1985,
  "ProcedureStepDescription": "MRI BRAIN WITHOUT IV CONTRAST",
  "ProtocolName": "TASK_CD_MoCo",
  "PulseSequenceDetails": "%SiemensSeq%\\ep2d_bold",
  "ReceiveCoilActiveElements": "HE1-4",
  "ReceiveCoilName": "HeadNeck_20",
  "ReconMatrixPE": 72,
  "RepetitionTime": 2.5,
  "SAR": 0.114752,
  "ScanOptions": "FS",
  "ScanningSequence": "EP",
  "SequenceName": "*epfid2d1_72",
  "SequenceVariant": "SK",
  "SeriesDescription": "MoCoSeries",
  "SeriesNumber": 8,
  "ShimSetting": [-898, -7009, 5024, 191, -369, 511, 505, -135],
  "SliceThickness": 3,
  "SliceTiming": [1.24, 0, 1.3075, 0.0675, 1.3725, 0.1325, 1.4375, 0.1975, 1.5025, 0.2625, 1.5675, 0.3275, 1.6325, 0.3925, 1.6975, 0.4575, 1.7625, 0.5225, 1.8275, 0.5875, 1.8925, 0.6525, 1.96, 0.72, 2.025, 0.785, 2.09, 0.85, 2.155, 0.915, 2.22, 0.98, 2.285, 1.045, 2.35, 1.11, 2.415, 1.175],
  "SoftwareVersions": "syngo MR E11",
  "SpacingBetweenSlices": 3,
  "StationName": "MRC45219",
  "TaskName": "cd",
  "TotalReadoutTime": 0.0404708,
  "TxRefAmp": 397.218,
  "dcmmeta_affine": [
    [-3.0, 0.0, 0.0, 109.06024169921875],
    [0.0, 2.9158830642700195, 0.7054262757301331, -112.19680786132812],
    [0.0, -0.7054263353347778, 2.9158830642700195, -12.951119422912598],
    [0.0, 0.0, 0.0, 1.0]
],
  "dcmmeta_reorient_transform": [
    [0.0, -1.0, 0.0, 71.0],
    [1.0, 0.0, 0.0, 0.0],
    [0.0, 0.0, 1.0, 0.0],
    [0.0, 0.0, 0.0, 1.0]
],
  "dcmmeta_shape": [72, 72, 38, 132],
  "dcmmeta_slice_dim": 2,
  "dcmmeta_version": 0.6,
  "global": {
    "const": {
      "AccessionNumber": "REMOVED",
      "AcquisitionMatrix": [72, 0, 0, 72],
      "AngioFlag": "N",
      "BitsAllocated": 16,
      "BitsStored": 12,
      "BodyPartExamined": "BRAIN",
      "Columns": 504,
      "CountryOfResidence": "REMOVED",
      "DeidentificationMethod": "anonymize.default",
      "DeidentificationMethodCodeSequence": [
        {
          "CodeMeaning": "Basic Anonymization",
          "CodeValue": "113199",
          "CodingSchemeDesignator": "2012CDX"
        }
],
      "EchoNumbers": 1,
      "EchoTime": 30.0,
      "EchoTrainLength": 72,
      "FlipAngle": 80.0,
      "HighBit": 11,
      "ImageOrientationPatient": [1.0, 0.0, 0.0, 0.0, 0.97196100271939, 0.23514210425341],
      "ImagePositionPatient": [-757.06024098396, -724.66161839766, -215.40847161758],
      "ImageType": [
        "ORIGINAL",
        "PRIMARY",
        "M",
        "ND",
        "NORM",
        "MOCO",
        "MOSAIC"
],
      "ImagedNucleus": "1H",
      "ImagingFrequency": 123.181988,
      "InPlanePhaseEncodingDirection": "COL",
      "MRAcquisitionType": "2D",
      "MagneticFieldStrength": 3.0,
      "Manufacturer": "SIEMENS",
      "ManufacturerModelName": "Skyra",
      "Modality": "MR",
      "NumberOfAverages": 1.0,
      "NumberOfPhaseEncodingSteps": 72,
      "PercentPhaseFieldOfView": 100.0,
      "PercentSampling": 100.0,
      "PerformedProcedureStepStartTime": "210142.423000",
      "PhotometricInterpretation": "MONOCHROME2",
      "PixelBandwidth": 1985.0,
      "PixelRepresentation": 0,
      "PixelSpacing": [3.0, 3.0],
      "PregnancyStatus": 0,
      "ProcedureCodeSequence": [
        {
          "CodeMeaning": "MRI BRAIN WITHOUT IV CONTRAST",
          "CodeValue": "IMG269",
          "CodingSchemeDesignator": "L"
        }
],
      "ProtocolName": "TASK_CD",
      "RepetitionTime": 2500.0,
      "RequestAttributesSequence": [
        {
          "RequestedProcedureID": "293873041",
          "ScheduledProcedureStepDescription": "MRI BRAIN WITHOUT IV CONTRAST",
          "ScheduledProcedureStepID": "E8943926",
          "ScheduledProtocolCodeSequence": [
            {
              "CodeMeaning": "MRI BRAIN WITHOUT IV CONTRAST",
              "CodeValue": "651061",
              "CodingSchemeDesignator": "L"
            }
]
        }
],
      "RequestedProcedureCodeSequence": [
        {
          "CodeMeaning": "MRI BRAIN WITHOUT IV CONTRAST",
          "CodeValue": "IMG269",
          "CodingSchemeDesignator": "L"
        }
],
      "Rows": 504,
      "SAR": 0.11475224113031,
      "SamplesPerPixel": 1,
      "ScanOptions": "FS",
      "ScanningSequence": "EP",
      "SequenceName": "*epfid2d1_72",
      "SequenceVariant": "SK",
      "SeriesDescription": "MoCoSeries",
      "SeriesNumber": 8,
      "SeriesTime": "211346.289000",
      "SliceLocation": -38.970176245968,
      "SliceThickness": 3.0,
      "SmallestImagePixelValue": 0,
      "SmokingStatus": "REMOVED",
      "SoftwareVersions": "syngo MR E11",
      "SpacingBetweenSlices": 2.9999999368582,
      "SpecificCharacterSet": "ISO_IR 100",
      "StudyID": "REMOVED",
      "StudyTime": "210142.268000",
      "TransmitCoilName": "Body",
      "VariableFlipAngleFlag": "N",
      "WindowCenterWidthExplanation": "Algo1",
      "dBdt": 0.0},
    "slices": {}
  },
  "time": {
    "samples": {
      "AcquisitionNumber": [1, 2, 3, 4, 5, 6, 7, 8, 9, 10, 11, 12, 13, 14, 15, 16, 17, 18, 19, 20, 21, 22, 23, 24, 25, 26, 27, 28, 29, 30, 31, 32, 33, 34, 35, 36, 37, 38, 39, 40, 41, 42, 43, 44, 45, 46, 47, 48, 49, 50, 51, 52, 53, 54, 55, 56, 57, 58, 59, 60, 61, 62, 63, 64, 65, 66, 67, 68, 69, 70, 71, 72, 73, 74, 75, 76, 77, 78, 79, 80, 81, 82, 83, 84, 85, 86, 87, 88, 89, 90, 91, 92, 93, 94, 95, 96, 97, 98, 99, 100, 101, 102, 103, 104, 105, 106, 107, 108, 109, 110, 111, 112, 113, 114, 115, 116, 117, 118, 119, 120, 121, 122, 123, 124, 125, 126, 127, 128, 129, 130, 131, 132],
      "AcquisitionTime": ["211240.637500", "211243.137500", "211245.637500", "211248.137500", "211250.637500", "211253.137500", "211255.637500", "211258.137500", "211300.637500", "211303.137500", "211305.637500", "211308.137500", "211310.637500", "211313.137500", "211315.637500", "211318.137500", "211320.637500", "211323.137500", "211325.637500", "211328.137500", "211330.637500", "211333.137500", "211335.637500", "211338.137500", "211340.637500", "211343.137500", "211345.637500", "211348.137500", "211350.637500", "211353.137500", "211355.637500", "211358.137500", "211400.637500", "211403.137500", "211405.637500", "211408.137500", "211410.637500", "211413.137500", "211415.637500", "211418.137500", "211420.637500", "211423.137500", "211425.637500", "211428.137500", "211430.637500", "211433.137500", "211435.637500", "211438.137500", "211440.637500", "211443.137500", "211445.637500", "211448.137500", "211450.637500", "211453.137500", "211455.637500", "211458.137500", "211500.637500", "211503.137500", "211505.637500", "211508.137500", "211510.637500", "211513.137500", "211515.637500", "211518.137500", "211520.637500", "211523.137500", "211525.637500", "211528.137500", "211530.637500", "211533.137500", "211535.637500", "211538.137500", "211540.637500", "211543.137500", "211545.637500", "211548.137500", "211550.637500", "211553.137500", "211555.637500", "211558.137500", "211600.637500", "211603.137500", "211605.637500", "211608.137500", "211610.637500", "211613.137500", "211615.637500", "211618.137500", "211620.637500", "211623.137500", "211625.637500", "211628.137500", "211630.637500", "211633.137500", "211635.637500", "211638.137500", "211640.637500", "211643.137500", "211645.637500", "211648.137500", "211650.637500", "211653.137500", "211655.637500", "211658.137500", "211700.637500", "211703.137500", "211705.637500", "211708.137500", "211710.637500", "211713.137500", "211715.637500", "211718.137500", "211720.637500", "211723.137500", "211725.637500", "211728.137500", "211730.637500", "211733.137500", "211735.637500", "211738.137500", "211740.637500", "211743.137500", "211745.637500", "211748.137500", "211750.637500", "211753.137500", "211755.637500", "211758.137500", "211800.637500", "211803.137500", "211805.637500", "211808.137500"],
      "ContentTime": ["211346.291000", "211346.294000", "211346.297000", "211346.300000", "211346.303000", "211346.305000", "211346.308000", "211346.311000", "211346.314000", "211346.316000", "211346.319000", "211346.326000", "211346.329000", "211346.331000", "211346.334000", "211346.337000", "211346.339000", "211346.342000", "211346.345000", "211346.348000", "211346.350000", "211346.353000", "211346.356000", "211346.359000", "211346.361000", "211346.364000", "211446.271000", "211446.274000", "211446.281000", "211446.284000", "211446.286000", "211446.289000", "211446.292000", "211446.295000", "211446.297000", "211446.300000", "211446.303000", "211446.306000", "211446.308000", "211446.311000", "211446.314000", "211446.317000", "211446.319000", "211446.322000", "211446.325000", "211446.328000", "211446.330000", "211446.333000", "211446.336000", "211446.339000", "211546.276000", "211546.279000", "211546.282000", "211546.285000", "211546.287000", "211546.290000", "211546.293000", "211546.296000", "211546.298000", "211546.301000", "211546.304000", "211546.307000", "211546.309000", "211546.312000", "211546.315000", "211546.318000", "211546.320000", "211546.323000", "211546.326000", "211546.329000", "211546.331000", "211546.334000", "211546.337000", "211546.340000", "211646.264000", "211646.267000", "211646.270000", "211646.272000", "211646.275000", "211646.278000", "211646.281000", "211646.283000", "211646.286000", "211646.289000", "211646.292000", "211646.294000", "211646.297000", "211646.300000", "211646.303000", "211646.306000", "211646.308000", "211646.311000", "211646.314000", "211646.317000", "211646.319000", "211646.322000", "211646.325000", "211646.328000", "211746.280000", "211746.283000", "211746.286000", "211746.288000", "211746.291000", "211746.294000", "211746.297000", "211746.299000", "211746.302000", "211746.305000", "211746.308000", "211746.311000", "211746.313000", "211746.316000", "211746.319000", "211746.322000", "211746.324000", "211746.327000", "211746.330000", "211746.333000", "211746.335000", "211746.338000", "211746.341000", "211746.344000", "211809.587000", "211809.598000", "211809.601000", "211809.604000", "211809.607000", "211809.610000", "211809.613000", "211809.616000", "211809.619000", "211809.622000"],
      "InstanceCreationTime": ["211346.291000", "211346.294000", "211346.297000", "211346.300000", "211346.303000", "211346.305000", "211346.308000", "211346.311000", "211346.314000", "211346.316000", "211346.319000", "211346.326000", "211346.329000", "211346.331000", "211346.334000", "211346.337000", "211346.339000", "211346.342000", "211346.345000", "211346.348000", "211346.350000", "211346.353000", "211346.356000", "211346.359000", "211346.361000", "211346.364000", "211446.271000", "211446.274000", "211446.281000", "211446.284000", "211446.286000", "211446.289000", "211446.292000", "211446.295000", "211446.297000", "211446.300000", "211446.303000", "211446.306000", "211446.308000", "211446.311000", "211446.314000", "211446.317000", "211446.319000", "211446.322000", "211446.325000", "211446.328000", "211446.330000", "211446.333000", "211446.336000", "211446.339000", "211546.276000", "211546.279000", "211546.282000", "211546.285000", "211546.287000", "211546.290000", "211546.293000", "211546.296000", "211546.298000", "211546.301000", "211546.304000", "211546.307000", "211546.309000", "211546.312000", "211546.315000", "211546.318000", "211546.320000", "211546.323000", "211546.326000", "211546.329000", "211546.331000", "211546.334000", "211546.337000", "211546.340000", "211646.264000", "211646.267000", "211646.270000", "211646.272000", "211646.275000", "211646.278000", "211646.281000", "211646.283000", "211646.286000", "211646.289000", "211646.292000", "211646.294000", "211646.297000", "211646.300000", "211646.303000", "211646.306000", "211646.308000", "211646.311000", "211646.314000", "211646.317000", "211646.319000", "211646.322000", "211646.325000", "211646.328000", "211746.280000", "211746.283000", "211746.286000", "211746.288000", "211746.291000", "211746.294000", "211746.297000", "211746.299000", "211746.302000", "211746.305000", "211746.308000", "211746.311000", "211746.313000", "211746.316000", "211746.319000", "211746.322000", "211746.324000", "211746.327000", "211746.330000", "211746.333000", "211746.335000", "211746.338000", "211746.341000", "211746.344000", "211809.587000", "211809.598000", "211809.601000", "211809.604000", "211809.607000", "211809.610000", "211809.613000", "211809.616000", "211809.619000", "211809.622000"],
      "InstanceNumber": [1, 2, 3, 4, 5, 6, 7, 8, 9, 10, 11, 12, 13, 14, 15, 16, 17, 18, 19, 20, 21, 22, 23, 24, 25, 26, 27, 28, 29, 30, 31, 32, 33, 34, 35, 36, 37, 38, 39, 40, 41, 42, 43, 44, 45, 46, 47, 48, 49, 50, 51, 52, 53, 54, 55, 56, 57, 58, 59, 60, 61, 62, 63, 64, 65, 66, 67, 68, 69, 70, 71, 72, 73, 74, 75, 76, 77, 78, 79, 80, 81, 82, 83, 84, 85, 86, 87, 88, 89, 90, 91, 92, 93, 94, 95, 96, 97, 98, 99, 100, 101, 102, 103, 104, 105, 106, 107, 108, 109, 110, 111, 112, 113, 114, 115, 116, 117, 118, 119, 120, 121, 122, 123, 124, 125, 126, 127, 128, 129, 130, 131, 132],
      "LargestImagePixelValue": [1848, 1919, 2506, 2025, 1660, 2199, 1990, 1754, 2113, 2211, 1732, 1677, 2440, 1870, 1685, 2120, 1807, 1703, 2184, 1659, 1866, 2300, 1732, 1808, 2137, 1767, 2118, 2116, 1969, 2289, 2014, 1784, 1804, 1985, 2122, 1754, 1861, 1660, 2123, 1748, 1659, 2201, 1759, 1688, 2213, 1780, 2198, 1825, 1661, 2039, 1656, 1979, 2338, 2182, 1961, 1688, 2108, 1654, 1664, 2361, 1896, 2158, 1690, 1667, 2213, 1677, 2298, 2014, 1881, 1851, 1656, 2054, 1748, 1871, 2226, 1715, 1851, 1987, 1653, 2348, 1804, 1975, 2442, 1725, 1839, 1937, 1647, 2063, 1888, 1670, 2100, 1833, 1700, 1981, 2309, 1780, 1703, 2297, 1694, 1661, 1886, 1725, 1655, 2213, 1934, 1909, 2027, 1860, 1656, 1710, 2189, 1644, 1643, 2189, 1836, 1655, 1909, 1634, 1657, 2102, 1663, 1665, 1658, 2222, 2019, 1789, 2090, 1668, 1642, 1944, 1623, 2135],
      "WindowCenter": [663.0, 661.0, 663.0, 661.0, 659.0, 662.0, 661.0, 660.0, 662.0, 662.0, 660.0, 660.0, 663.0, 660.0, 659.0, 662.0, 661.0, 660.0, 662.0, 660.0, 662.0, 664.0, 660.0, 661.0, 663.0, 661.0, 663.0, 663.0, 661.0, 663.0, 661.0, 661.0, 661.0, 661.0, 662.0, 660.0, 661.0, 661.0, 664.0, 662.0, 660.0, 664.0, 662.0, 661.0, 663.0, 662.0, 664.0, 661.0, 660.0, 662.0, 661.0, 664.0, 664.0, 663.0, 661.0, 660.0, 662.0, 660.0, 660.0, 663.0, 661.0, 662.0, 660.0, 660.0, 663.0, 660.0, 664.0, 662.0, 661.0, 661.0, 660.0, 663.0, 662.0, 663.0, 664.0, 661.0, 661.0, 662.0, 660.0, 663.0, 662.0, 663.0, 664.0, 659.0, 660.0, 661.0, 660.0, 663.0, 662.0, 661.0, 663.0, 662.0, 661.0, 662.0, 663.0, 661.0, 661.0, 663.0, 659.0, 659.0, 662.0, 661.0, 661.0, 664.0, 662.0, 662.0, 662.0, 661.0, 660.0, 660.0, 663.0, 660.0, 660.0, 663.0, 661.0, 660.0, 661.0, 660.0, 660.0, 663.0, 660.0, 660.0, 660.0, 663.0, 661.0, 660.0, 661.0, 658.0, 659.0, 663.0, 660.0, 662.0],
      "WindowWidth": [1419.0, 1413.0, 1416.0, 1413.0, 1409.0, 1416.0, 1413.0, 1411.0, 1415.0, 1415.0, 1411.0, 1411.0, 1417.0, 1411.0, 1408.0, 1415.0, 1412.0, 1410.0, 1414.0, 1410.0, 1415.0, 1418.0, 1411.0, 1412.0, 1417.0, 1412.0, 1417.0, 1416.0, 1414.0, 1417.0, 1413.0, 1412.0, 1414.0, 1414.0, 1414.0, 1411.0, 1413.0, 1412.0, 1421.0, 1414.0, 1412.0, 1418.0, 1415.0, 1413.0, 1418.0, 1414.0, 1419.0, 1413.0, 1411.0, 1416.0, 1413.0, 1419.0, 1420.0, 1417.0, 1412.0, 1409.0, 1416.0, 1410.0, 1412.0, 1418.0, 1412.0, 1415.0, 1410.0, 1412.0, 1417.0, 1410.0, 1419.0, 1416.0, 1413.0, 1412.0, 1410.0, 1417.0, 1415.0, 1417.0, 1419.0, 1412.0, 1413.0, 1415.0, 1411.0, 1418.0, 1415.0, 1418.0, 1419.0, 1409.0, 1410.0, 1412.0, 1411.0, 1417.0, 1415.0, 1413.0, 1417.0, 1416.0, 1413.0, 1416.0, 1418.0, 1413.0, 1413.0, 1417.0, 1408.0, 1409.0, 1416.0, 1413.0, 1413.0, 1421.0, 1416.0, 1415.0, 1415.0, 1414.0, 1411.0, 1411.0, 1417.0, 1410.0, 1411.0, 1418.0, 1414.0, 1412.0, 1413.0, 1410.0, 1410.0, 1416.0, 1411.0, 1411.0, 1411.0, 1416.0, 1413.0, 1410.0, 1413.0, 1407.0, 1409.0, 1416.0, 1410.0, 1414.0]
    },
    "slices": {}
  }
}