{
  "AcquisitionMatrixPE": 72,
  "AcquisitionNumber": 1,
  "AcquisitionTime": "21:12:40.637500",
  "BandwidthPerPixelPhaseEncode": 24.366,
  "BaseResolution": 72,
  "BodyPartExamined": "BRAIN",
  "CoilCombinationMethod": "Sum of Squares",
  "ConsistencyInfo": "N4_VE11C_LATEST_20160120",
  "ConversionSoftware": "dcm2niix",
  "ConversionSoftwareVersion": "v1.0.20220720",
  "DerivedVendorReportedEchoSpacing": 0.000570011,
  "DeviceSerialNumber": "45219",
  "DwellTime": 3.5e-06,
  "EchoTime": 0.03,
  "EchoTrainLength": 72,
  "EffectiveEchoSpacing": 0.000570011,
  "FlipAngle": 80,
  "HeudiconvVersion": "1.1.6",
  "ImageOrientationPatientDICOM": [1, 0, 0, 0, 0.971961, 0.235142],
  "ImageOrientationText": "Tra>Cor(13.6)",
  "ImageType": [
    "ORIGINAL",
    "PRIMARY",
    "M",
    "ND",
    "NORM",
    "MOSAIC"
],
  "ImagingFrequency": 123.182,
  "InPlanePhaseEncodingDirectionDICOM": "COL",
  "InstitutionAddress": "First Avenue 660,New York,NYC,US,10016",
  "InstitutionName": "NYU LANGONE CBI",
  "InstitutionalDepartmentName": "Department",
  "MRAcquisitionType": "2D",
  "MagneticFieldStrength": 3,
  "Manufacturer": "Siemens",
  "ManufacturersModelName": "Skyra",
  "MatrixCoilMode": "SENSE",
  "Modality": "MR",
  "NonlinearGradientCorrection": false,
  "PartialFourier": 1,
  "PatientPosition": "HFS",
  "PercentPhaseFOV": 100,
  "PercentSampling": 100,
  "PhaseEncodingDirection": "j-",
  "PhaseEncodingSteps": 72,
  "PhaseResolution": 1,
  "PixelBandwidth": 1985,
  "ProcedureStepDescription": "MRI BRAIN WITHOUT IV CONTRAST",
  "ProtocolName": "TASK_CD",
  "PulseSequenceDetails": "%SiemensSeq%\\ep2d_bold",
  "ReceiveCoilActiveElements": "HE1-4",
  "ReceiveCoilName": "HeadNeck_20",
  "ReconMatrixPE": 72,
  "RepetitionTime": 2.5,
  "SAR": 0.114752,
  "ScanOptions": "FS",
  "ScanningSequence": "EP",
  "SequenceName": "*epfid2d1_72",
  "SequenceVariant": "SK",
  "SeriesDescription": "TASK_CD",
  "SeriesNumber": 7,
  "ShimSetting": [-898, -7009, 5024, 191, -369, 511, 505, -135],
  "SliceThickness": 3,
  "SliceTiming": [1.24, 0, 1.3075, 0.0675, 1.3725, 0.1325, 1.4375, 0.1975, 1.5025, 0.2625, 1.5675, 0.3275, 1.6325, 0.3925, 1.6975, 0.4575, 1.7625, 0.5225, 1.8275, 0.5875, 1.8925, 0.6525, 1.96, 0.72, 2.025, 0.785, 2.09, 0.85, 2.155, 0.915, 2.22, 0.98, 2.285, 1.045, 2.35, 1.11, 2.415, 1.175],
  "SoftwareVersions": "syngo MR E11",
  "SpacingBetweenSlices": 3,
  "StationName": "MRC45219",
  "TaskName": "cd",
  "TotalReadoutTime": 0.0404708,
  "TxRefAmp": 397.218,
  "dcmmeta_affine": [
    [-3.0, 0.0, 0.0, 109.06024169921875],
    [0.0, 2.9158830642700195, 0.7054262757301331, -112.19680786132812],
    [0.0, -0.7054263353347778, 2.9158830642700195, -12.951119422912598],
    [0.0, 0.0, 0.0, 1.0]
],
  "dcmmeta_reorient_transform": [
    [0.0, -1.0, 0.0, 71.0],
    [1.0, 0.0, 0.0, 0.0],
    [0.0, 0.0, 1.0, 0.0],
    [0.0, 0.0, 0.0, 1.0]
],
  "dcmmeta_shape": [72, 72, 38, 132],
  "dcmmeta_slice_dim": 2,
  "dcmmeta_version": 0.6,
  "global": {
    "const": {
      "AccessionNumber": "REMOVED",
      "AcquisitionMatrix": [72, 0, 0, 72],
      "AngioFlag": "N",
      "BitsAllocated": 16,
      "BitsStored": 12,
      "BodyPartExamined": "BRAIN",
      "Columns": 504,
      "CountryOfResidence": "REMOVED",
      "DeidentificationMethod": "anonymize.default",
      "DeidentificationMethodCodeSequence": [
        {
          "CodeMeaning": "Basic Anonymization",
          "CodeValue": "113199",
          "CodingSchemeDesignator": "2012CDX"
        }
],
      "EchoNumbers": 1,
      "EchoTime": 30.0,
      "EchoTrainLength": 72,
      "FlipAngle": 80.0,
      "HighBit": 11,
      "ImageOrientationPatient": [1.0, 0.0, 0.0, 0.0, 0.97196100271939, 0.23514210425341],
      "ImagePositionPatient": [-757.06024098396, -724.66161839766, -215.40847161758],
      "ImageType": [
        "ORIGINAL",
        "PRIMARY",
        "M",
        "ND",
        "NORM",
        "MOSAIC"
],
      "ImagedNucleus": "1H",
      "ImagingFrequency": 123.181988,
      "InPlanePhaseEncodingDirection": "COL",
      "MRAcquisitionType": "2D",
      "MagneticFieldStrength": 3.0,
      "Manufacturer": "SIEMENS",
      "ManufacturerModelName": "Skyra",
      "Modality": "MR",
      "NumberOfAverages": 1.0,
      "NumberOfPhaseEncodingSteps": 72,
      "PercentPhaseFieldOfView": 100.0,
      "PercentSampling": 100.0,
      "PerformedProcedureStepStartTime": "210142.423000",
      "PhotometricInterpretation": "MONOCHROME2",
      "PixelBandwidth": 1985.0,
      "PixelRepresentation": 0,
      "PixelSpacing": [3.0, 3.0],
      "PregnancyStatus": 0,
      "ProcedureCodeSequence": [
        {
          "CodeMeaning": "MRI BRAIN WITHOUT IV CONTRAST",
          "CodeValue": "IMG269",
          "CodingSchemeDesignator": "L"
        }
],
      "ProtocolName": "TASK_CD",
      "RepetitionTime": 2500.0,
      "RequestAttributesSequence": [
        {
          "RequestedProcedureID": "293873041",
          "ScheduledProcedureStepDescription": "MRI BRAIN WITHOUT IV CONTRAST",
          "ScheduledProcedureStepID": "E8943926",
          "ScheduledProtocolCodeSequence": [
            {
              "CodeMeaning": "MRI BRAIN WITHOUT IV CONTRAST",
              "CodeValue": "651061",
              "CodingSchemeDesignator": "L"
            }
]
        }
],
      "RequestedProcedureCodeSequence": [
        {
          "CodeMeaning": "MRI BRAIN WITHOUT IV CONTRAST",
          "CodeValue": "IMG269",
          "CodingSchemeDesignator": "L"
        }
],
      "Rows": 504,
      "SAR": 0.11475224113031,
      "SamplesPerPixel": 1,
      "ScanOptions": "FS",
      "ScanningSequence": "EP",
      "SequenceName": "*epfid2d1_72",
      "SequenceVariant": "SK",
      "SeriesDescription": "TASK_CD",
      "SeriesNumber": 7,
      "SeriesTime": "211346.177000",
      "SliceLocation": -38.970176245968,
      "SliceThickness": 3.0,
      "SmallestImagePixelValue": 0,
      "SmokingStatus": "REMOVED",
      "SoftwareVersions": "syngo MR E11",
      "SpacingBetweenSlices": 2.9999999368582,
      "SpecificCharacterSet": "ISO_IR 100",
      "StudyID": "REMOVED",
      "StudyTime": "210142.268000",
      "TransmitCoilName": "Body",
      "VariableFlipAngleFlag": "N",
      "WindowCenterWidthExplanation": "Algo1",
      "dBdt": 0.0},
    "slices": {}
  },
  "time": {
    "samples": {
      "AcquisitionNumber": [1, 2, 3, 4, 5, 6, 7, 8, 9, 10, 11, 12, 13, 14, 15, 16, 17, 18, 19, 20, 21, 22, 23, 24, 25, 26, 27, 28, 29, 30, 31, 32, 33, 34, 35, 36, 37, 38, 39, 40, 41, 42, 43, 44, 45, 46, 47, 48, 49, 50, 51, 52, 53, 54, 55, 56, 57, 58, 59, 60, 61, 62, 63, 64, 65, 66, 67, 68, 69, 70, 71, 72, 73, 74, 75, 76, 77, 78, 79, 80, 81, 82, 83, 84, 85, 86, 87, 88, 89, 90, 91, 92, 93, 94, 95, 96, 97, 98, 99, 100, 101, 102, 103, 104, 105, 106, 107, 108, 109, 110, 111, 112, 113, 114, 115, 116, 117, 118, 119, 120, 121, 122, 123, 124, 125, 126, 127, 128, 129, 130, 131, 132],
      "AcquisitionTime": ["211240.637500", "211243.137500", "211245.637500", "211248.137500", "211250.637500", "211253.137500", "211255.637500", "211258.137500", "211300.637500", "211303.137500", "211305.637500", "211308.137500", "211310.637500", "211313.137500", "211315.637500", "211318.137500", "211320.637500", "211323.137500", "211325.637500", "211328.137500", "211330.637500", "211333.137500", "211335.637500", "211338.137500", "211340.637500", "211343.137500", "211345.637500", "211348.137500", "211350.637500", "211353.137500", "211355.637500", "211358.137500", "211400.637500", "211403.137500", "211405.637500", "211408.137500", "211410.637500", "211413.137500", "211415.637500", "211418.137500", "211420.637500", "211423.137500", "211425.637500", "211428.137500", "211430.637500", "211433.137500", "211435.637500", "211438.137500", "211440.637500", "211443.137500", "211445.637500", "211448.137500", "211450.637500", "211453.137500", "211455.637500", "211458.137500", "211500.637500", "211503.137500", "211505.637500", "211508.137500", "211510.637500", "211513.137500", "211515.637500", "211518.137500", "211520.637500", "211523.137500", "211525.637500", "211528.137500", "211530.637500", "211533.137500", "211535.637500", "211538.137500", "211540.637500", "211543.137500", "211545.637500", "211548.137500", "211550.637500", "211553.137500", "211555.637500", "211558.137500", "211600.637500", "211603.137500", "211605.637500", "211608.137500", "211610.637500", "211613.137500", "211615.637500", "211618.137500", "211620.637500", "211623.137500", "211625.637500", "211628.137500", "211630.637500", "211633.137500", "211635.637500", "211638.137500", "211640.637500", "211643.137500", "211645.637500", "211648.137500", "211650.637500", "211653.137500", "211655.637500", "211658.137500", "211700.637500", "211703.137500", "211705.637500", "211708.137500", "211710.637500", "211713.137500", "211715.637500", "211718.137500", "211720.637500", "211723.137500", "211725.637500", "211728.137500", "211730.637500", "211733.137500", "211735.637500", "211738.137500", "211740.637500", "211743.137500", "211745.637500", "211748.137500", "211750.637500", "211753.137500", "211755.637500", "211758.137500", "211800.637500", "211803.137500", "211805.637500", "211808.137500"],
      "ContentTime": ["211346.181000", "211346.185000", "211346.187000", "211346.190000", "211346.193000", "211346.195000", "211346.198000", "211346.200000", "211346.203000", "211346.206000", "211346.209000", "211346.211000", "211346.214000", "211346.217000", "211346.219000", "211346.222000", "211346.232000", "211346.234000", "211346.237000", "211346.240000", "211346.243000", "211346.245000", "211346.248000", "211346.250000", "211346.253000", "211346.256000", "211446.177000", "211446.180000", "211446.183000", "211446.185000", "211446.188000", "211446.190000", "211446.193000", "211446.196000", "211446.198000", "211446.201000", "211446.204000", "211446.206000", "211446.209000", "211446.212000", "211446.215000", "211446.217000", "211446.220000", "211446.222000", "211446.225000", "211446.228000", "211446.231000", "211446.239000", "211446.241000", "211446.244000", "211546.176000", "211546.179000", "211546.181000", "211546.184000", "211546.187000", "211546.189000", "211546.192000", "211546.195000", "211546.197000", "211546.200000", "211546.203000", "211546.206000", "211546.208000", "211546.211000", "211546.214000", "211546.216000", "211546.219000", "211546.222000", "211546.224000", "211546.227000", "211546.230000", "211546.237000", "211546.240000", "211546.242000", "211646.177000", "211646.180000", "211646.182000", "211646.185000", "211646.188000", "211646.190000", "211646.193000", "211646.196000", "211646.198000", "211646.201000", "211646.204000", "211646.206000", "211646.209000", "211646.212000", "211646.214000", "211646.217000", "211646.220000", "211646.222000", "211646.225000", "211646.228000", "211646.230000", "211646.233000", "211646.236000", "211646.238000", "211746.176000", "211746.179000", "211746.182000", "211746.184000", "211746.187000", "211746.190000", "211746.192000", "211746.195000", "211746.198000", "211746.200000", "211746.203000", "211746.206000", "211746.208000", "211746.211000", "211746.214000", "211746.216000", "211746.219000", "211746.222000", "211746.224000", "211746.227000", "211746.230000", "211746.232000", "211746.235000", "211746.238000", "211809.521000", "211809.524000", "211809.527000", "211809.529000", "211809.532000", "211809.535000", "211809.537000", "211809.540000", "211809.543000", "211809.546000"],
      "InstanceCreationTime": ["211346.181000", "211346.185000", "211346.187000", "211346.190000", "211346.193000", "211346.195000", "211346.198000", "211346.200000", "211346.203000", "211346.206000", "211346.209000", "211346.211000", "211346.214000", "211346.217000", "211346.219000", "211346.222000", "211346.232000", "211346.234000", "211346.237000", "211346.240000", "211346.243000", "211346.245000", "211346.248000", "211346.250000", "211346.253000", "211346.256000", "211446.177000", "211446.180000", "211446.183000", "211446.185000", "211446.188000", "211446.190000", "211446.193000", "211446.196000", "211446.198000", "211446.201000", "211446.204000", "211446.206000", "211446.209000", "211446.212000", "211446.215000", "211446.217000", "211446.220000", "211446.222000", "211446.225000", "211446.228000", "211446.231000", "211446.239000", "211446.241000", "211446.244000", "211546.176000", "211546.179000", "211546.181000", "211546.184000", "211546.187000", "211546.189000", "211546.192000", "211546.195000", "211546.197000", "211546.200000", "211546.203000", "211546.206000", "211546.208000", "211546.211000", "211546.214000", "211546.216000", "211546.219000", "211546.222000", "211546.224000", "211546.227000", "211546.230000", "211546.237000", "211546.240000", "211546.242000", "211646.177000", "211646.180000", "211646.182000", "211646.185000", "211646.188000", "211646.190000", "211646.193000", "211646.196000", "211646.198000", "211646.201000", "211646.204000", "211646.206000", "211646.209000", "211646.212000", "211646.214000", "211646.217000", "211646.220000", "211646.222000", "211646.225000", "211646.228000", "211646.230000", "211646.233000", "211646.236000", "211646.238000", "211746.176000", "211746.179000", "211746.182000", "211746.184000", "211746.187000", "211746.190000", "211746.192000", "211746.195000", "211746.198000", "211746.200000", "211746.203000", "211746.206000", "211746.208000", "211746.211000", "211746.214000", "211746.216000", "211746.219000", "211746.222000", "211746.224000", "211746.227000", "211746.230000", "211746.232000", "211746.235000", "211746.238000", "211809.521000", "211809.524000", "211809.527000", "211809.529000", "211809.532000", "211809.535000", "211809.537000", "211809.540000", "211809.543000", "211809.546000"],
      "InstanceNumber": [1, 2, 3, 4, 5, 6, 7, 8, 9, 10, 11, 12, 13, 14, 15, 16, 17, 18, 19, 20, 21, 22, 23, 24, 25, 26, 27, 28, 29, 30, 31, 32, 33, 34, 35, 36, 37, 38, 39, 40, 41, 42, 43, 44, 45, 46, 47, 48, 49, 50, 51, 52, 53, 54, 55, 56, 57, 58, 59, 60, 61, 62, 63, 64, 65, 66, 67, 68, 69, 70, 71, 72, 73, 74, 75, 76, 77, 78, 79, 80, 81, 82, 83, 84, 85, 86, 87, 88, 89, 90, 91, 92, 93, 94, 95, 96, 97, 98, 99, 100, 101, 102, 103, 104, 105, 106, 107, 108, 109, 110, 111, 112, 113, 114, 115, 116, 117, 118, 119, 120, 121, 122, 123, 124, 125, 126, 127, 128, 129, 130, 131, 132],
      "LargestImagePixelValue": [1848, 1907, 2468, 1982, 1635, 2152, 1963, 1741, 2080, 2182, 1708, 1648, 2396, 1853, 1653, 2081, 1785, 1685, 2172, 1675, 1860, 2303, 1730, 1794, 2141, 1792, 2099, 2113, 1996, 2304, 2036, 1814, 1855, 2081, 2148, 1762, 1897, 1684, 2186, 1808, 1680, 2257, 1816, 1764, 2308, 1822, 2258, 1867, 1680, 2130, 1674, 2008, 2344, 2279, 2019, 1655, 2154, 1667, 1656, 2432, 1942, 2265, 1754, 1655, 2305, 1652, 2369, 2087, 1912, 1931, 1686, 2140, 1829, 1950, 2361, 1801, 1883, 2114, 1682, 2501, 1914, 2094, 2584, 1803, 1882, 2023, 1663, 2169, 1992, 1712, 2152, 1965, 1845, 2123, 2484, 1891, 1807, 2443, 1786, 1678, 2006, 1859, 1665, 2387, 2092, 2029, 2137, 2016, 1761, 1775, 2285, 1771, 1659, 2406, 1998, 1639, 2191, 1700, 1682, 2369, 1802, 1730, 1757, 2407, 2219, 1935, 2248, 1704, 1664, 2169, 1777, 2387],
      "WindowCenter": [663.0, 661.0, 663.0, 661.0, 659.0, 662.0, 661.0, 660.0, 662.0, 662.0, 660.0, 660.0, 663.0, 660.0, 659.0, 662.0, 661.0, 660.0, 662.0, 660.0, 662.0, 663.0, 660.0, 661.0, 663.0, 661.0, 663.0, 663.0, 662.0, 663.0, 661.0, 661.0, 662.0, 662.0, 662.0, 660.0, 661.0, 661.0, 665.0, 662.0, 661.0, 664.0, 662.0, 662.0, 664.0, 662.0, 664.0, 661.0, 661.0, 663.0, 661.0, 664.0, 664.0, 663.0, 661.0, 659.0, 663.0, 660.0, 661.0, 664.0, 661.0, 663.0, 660.0, 660.0, 663.0, 660.0, 664.0, 663.0, 662.0, 661.0, 660.0, 663.0, 662.0, 663.0, 664.0, 661.0, 662.0, 663.0, 661.0, 664.0, 663.0, 664.0, 664.0, 660.0, 660.0, 661.0, 660.0, 663.0, 662.0, 661.0, 664.0, 663.0, 662.0, 663.0, 664.0, 662.0, 662.0, 663.0, 659.0, 660.0, 663.0, 662.0, 661.0, 665.0, 663.0, 662.0, 663.0, 662.0, 661.0, 661.0, 663.0, 661.0, 661.0, 664.0, 662.0, 660.0, 663.0, 660.0, 660.0, 664.0, 661.0, 661.0, 661.0, 664.0, 663.0, 661.0, 662.0, 659.0, 659.0, 664.0, 661.0, 663.0],
      "WindowWidth": [1419.0, 1413.0, 1416.0, 1412.0, 1408.0, 1415.0, 1413.0, 1410.0, 1415.0, 1415.0, 1410.0, 1410.0, 1417.0, 1410.0, 1408.0, 1414.0, 1412.0, 1410.0, 1414.0, 1410.0, 1415.0, 1418.0, 1411.0, 1413.0, 1418.0, 1413.0, 1416.0, 1416.0, 1414.0, 1418.0, 1414.0, 1413.0, 1415.0, 1415.0, 1414.0, 1411.0, 1414.0, 1413.0, 1422.0, 1415.0, 1412.0, 1419.0, 1416.0, 1415.0, 1419.0, 1415.0, 1419.0, 1414.0, 1412.0, 1417.0, 1413.0, 1419.0, 1420.0, 1418.0, 1413.0, 1409.0, 1417.0, 1411.0, 1412.0, 1418.0, 1413.0, 1416.0, 1411.0, 1411.0, 1418.0, 1411.0, 1420.0, 1417.0, 1414.0, 1413.0, 1411.0, 1418.0, 1416.0, 1418.0, 1421.0, 1413.0, 1414.0, 1417.0, 1412.0, 1420.0, 1417.0, 1419.0, 1420.0, 1411.0, 1411.0, 1413.0, 1411.0, 1418.0, 1416.0, 1414.0, 1418.0, 1418.0, 1416.0, 1417.0, 1420.0, 1416.0, 1415.0, 1418.0, 1409.0, 1410.0, 1418.0, 1415.0, 1413.0, 1422.0, 1417.0, 1416.0, 1417.0, 1415.0, 1413.0, 1412.0, 1418.0, 1412.0, 1412.0, 1420.0, 1416.0, 1412.0, 1417.0, 1411.0, 1412.0, 1419.0, 1414.0, 1413.0, 1413.0, 1418.0, 1416.0, 1412.0, 1415.0, 1409.0, 1409.0, 1420.0, 1413.0, 1416.0]
    },
    "slices": {}
  }
}