{
  "AcquisitionMatrixPE": 72,
  "AcquisitionNumber": 1,
  "AcquisitionTime": "21:24:13.320000",
  "BandwidthPerPixelPhaseEncode": 24.366,
  "BaseResolution": 72,
  "BodyPartExamined": "BRAIN",
  "CoilCombinationMethod": "Sum of Squares",
  "ConsistencyInfo": "N4_VE11C_LATEST_20160120",
  "ConversionSoftware": "dcm2niix",
  "ConversionSoftwareVersion": "v1.0.20220720",
  "DerivedVendorReportedEchoSpacing": 0.000570011,
  "DeviceSerialNumber": "45219",
  "DwellTime": 3.5e-06,
  "EchoTime": 0.03,
  "EchoTrainLength": 72,
  "EffectiveEchoSpacing": 0.000570011,
  "FlipAngle": 80,
  "HeudiconvVersion": "1.1.6",
  "ImageOrientationPatientDICOM": [1, 0, 0, 0, 0.971961, 0.235142],
  "ImageOrientationText": "Tra>Cor(13.6)",
  "ImageType": [
    "ORIGINAL",
    "PRIMARY",
    "M",
    "ND",
    "NORM",
    "MOSAIC"
],
  "ImagingFrequency": 123.182,
  "InPlanePhaseEncodingDirectionDICOM": "COL",
  "InstitutionAddress": "First Avenue 660,New York,NYC,US,10016",
  "InstitutionName": "NYU LANGONE CBI",
  "InstitutionalDepartmentName": "Department",
  "MRAcquisitionType": "2D",
  "MagneticFieldStrength": 3,
  "Manufacturer": "Siemens",
  "ManufacturersModelName": "Skyra",
  "MatrixCoilMode": "SENSE",
  "Modality": "MR",
  "NonlinearGradientCorrection": false,
  "PartialFourier": 1,
  "PatientPosition": "HFS",
  "PercentPhaseFOV": 100,
  "PercentSampling": 100,
  "PhaseEncodingDirection": "j-",
  "PhaseEncodingSteps": 72,
  "PhaseResolution": 1,
  "PixelBandwidth": 1985,
  "ProcedureStepDescription": "MRI BRAIN WITHOUT IV CONTRAST",
  "ProtocolName": "REST_1",
  "PulseSequenceDetails": "%SiemensSeq%\\ep2d_bold",
  "ReceiveCoilActiveElements": "HE1-4",
  "ReceiveCoilName": "HeadNeck_20",
  "ReconMatrixPE": 72,
  "RepetitionTime": 2.5,
  "SAR": 0.114711,
  "ScanOptions": "FS",
  "ScanningSequence": "EP",
  "SequenceName": "*epfid2d1_72",
  "SequenceVariant": "SK",
  "SeriesDescription": "REST_1",
  "SeriesNumber": 10,
  "ShimSetting": [-898, -7009, 5024, 191, -369, 511, 505, -135],
  "SliceThickness": 3,
  "SliceTiming": [1.24, 0, 1.305, 0.065, 1.3725, 0.1325, 1.4375, 0.1975, 1.5025, 0.2625, 1.5675, 0.3275, 1.6325, 0.3925, 1.6975, 0.4575, 1.7625, 0.5225, 1.8275, 0.5875, 1.8925, 0.6525, 1.9575, 0.7175, 2.025, 0.785, 2.09, 0.85, 2.155, 0.915, 2.22, 0.98, 2.285, 1.045, 2.35, 1.11, 2.415, 1.175],
  "SoftwareVersions": "syngo MR E11",
  "SpacingBetweenSlices": 3,
  "StationName": "MRC45219",
  "TaskName": "rest",
  "TotalReadoutTime": 0.0404708,
  "TxRefAmp": 397.218,
  "dcmmeta_affine": [
    [-3.0, 0.0, 0.0, 109.06024169921875],
    [0.0, 2.9158830642700195, 0.7054262757301331, -112.19680786132812],
    [0.0, -0.7054263353347778, 2.9158830642700195, -12.951119422912598],
    [0.0, 0.0, 0.0, 1.0]
],
  "dcmmeta_reorient_transform": [
    [0.0, -1.0, 0.0, 71.0],
    [1.0, 0.0, 0.0, 0.0],
    [0.0, 0.0, 1.0, 0.0],
    [0.0, 0.0, 0.0, 1.0]
],
  "dcmmeta_shape": [72, 72, 38, 122],
  "dcmmeta_slice_dim": 2,
  "dcmmeta_version": 0.6,
  "global": {
    "const": {
      "AccessionNumber": "REMOVED",
      "AcquisitionMatrix": [72, 0, 0, 72],
      "AngioFlag": "N",
      "BitsAllocated": 16,
      "BitsStored": 12,
      "BodyPartExamined": "BRAIN",
      "Columns": 504,
      "CountryOfResidence": "REMOVED",
      "DeidentificationMethod": "anonymize.default",
      "DeidentificationMethodCodeSequence": [
        {
          "CodeMeaning": "Basic Anonymization",
          "CodeValue": "113199",
          "CodingSchemeDesignator": "2012CDX"
        }
],
      "EchoNumbers": 1,
      "EchoTime": 30.0,
      "EchoTrainLength": 72,
      "FlipAngle": 80.0,
      "HighBit": 11,
      "ImageOrientationPatient": [1.0, 0.0, 0.0, 0.0, 0.97196100271939, 0.23514210425341],
      "ImagePositionPatient": [-757.06024098396, -724.66161839766, -215.40847161758],
      "ImageType": [
        "ORIGINAL",
        "PRIMARY",
        "M",
        "ND",
        "NORM",
        "MOSAIC"
],
      "ImagedNucleus": "1H",
      "ImagingFrequency": 123.18202,
      "InPlanePhaseEncodingDirection": "COL",
      "MRAcquisitionType": "2D",
      "MagneticFieldStrength": 3.0,
      "Manufacturer": "SIEMENS",
      "ManufacturerModelName": "Skyra",
      "Modality": "MR",
      "NumberOfAverages": 1.0,
      "NumberOfPhaseEncodingSteps": 72,
      "PercentPhaseFieldOfView": 100.0,
      "PercentSampling": 100.0,
      "PerformedProcedureStepStartTime": "210142.423000",
      "PhotometricInterpretation": "MONOCHROME2",
      "PixelBandwidth": 1985.0,
      "PixelRepresentation": 0,
      "PixelSpacing": [3.0, 3.0],
      "PregnancyStatus": 0,
      "ProcedureCodeSequence": [
        {
          "CodeMeaning": "MRI BRAIN WITHOUT IV CONTRAST",
          "CodeValue": "IMG269",
          "CodingSchemeDesignator": "L"
        }
],
      "ProtocolName": "REST_1",
      "RepetitionTime": 2500.0,
      "RequestAttributesSequence": [
        {
          "RequestedProcedureID": "293873041",
          "ScheduledProcedureStepDescription": "MRI BRAIN WITHOUT IV CONTRAST",
          "ScheduledProcedureStepID": "E8943926",
          "ScheduledProtocolCodeSequence": [
            {
              "CodeMeaning": "MRI BRAIN WITHOUT IV CONTRAST",
              "CodeValue": "651061",
              "CodingSchemeDesignator": "L"
            }
]
        }
],
      "RequestedProcedureCodeSequence": [
        {
          "CodeMeaning": "MRI BRAIN WITHOUT IV CONTRAST",
          "CodeValue": "IMG269",
          "CodingSchemeDesignator": "L"
        }
],
      "Rows": 504,
      "SAR": 0.11471099939893,
      "SamplesPerPixel": 1,
      "ScanOptions": "FS",
      "ScanningSequence": "EP",
      "SequenceName": "*epfid2d1_72",
      "SequenceVariant": "SK",
      "SeriesDescription": "REST_1",
      "SeriesNumber": 10,
      "SeriesTime": "212505.074000",
      "SliceLocation": -38.970176245968,
      "SliceThickness": 3.0,
      "SmallestImagePixelValue": 0,
      "SmokingStatus": "REMOVED",
      "SoftwareVersions": "syngo MR E11",
      "SpacingBetweenSlices": 2.9999999368582,
      "SpecificCharacterSet": "ISO_IR 100",
      "StudyID": "REMOVED",
      "StudyTime": "210142.268000",
      "TransmitCoilName": "Body",
      "VariableFlipAngleFlag": "N",
      "WindowCenterWidthExplanation": "Algo1",
      "dBdt": 0.0},
    "slices": {}
  },
  "time": {
    "samples": {
      "AcquisitionNumber": [1, 2, 3, 4, 5, 6, 7, 8, 9, 10, 11, 12, 13, 14, 15, 16, 17, 18, 19, 20, 21, 22, 23, 24, 25, 26, 27, 28, 29, 30, 31, 32, 33, 34, 35, 36, 37, 38, 39, 40, 41, 42, 43, 44, 45, 46, 47, 48, 49, 50, 51, 52, 53, 54, 55, 56, 57, 58, 59, 60, 61, 62, 63, 64, 65, 66, 67, 68, 69, 70, 71, 72, 73, 74, 75, 76, 77, 78, 79, 80, 81, 82, 83, 84, 85, 86, 87, 88, 89, 90, 91, 92, 93, 94, 95, 96, 97, 98, 99, 100, 101, 102, 103, 104, 105, 106, 107, 108, 109, 110, 111, 112, 113, 114, 115, 116, 117, 118, 119, 120, 121, 122],
      "AcquisitionTime": ["212413.320000", "212415.820000", "212418.320000", "212420.820000", "212423.320000", "212425.820000", "212428.320000", "212430.820000", "212433.320000", "212435.820000", "212438.320000", "212440.820000", "212443.320000", "212445.820000", "212448.320000", "212450.820000", "212453.320000", "212455.820000", "212458.320000", "212500.820000", "212503.320000", "212505.820000", "212508.320000", "212510.820000", "212513.320000", "212515.820000", "212518.320000", "212520.820000", "212523.320000", "212525.820000", "212528.320000", "212530.820000", "212533.320000", "212535.820000", "212538.320000", "212540.820000", "212543.320000", "212545.820000", "212548.320000", "212550.820000", "212553.320000", "212555.820000", "212558.320000", "212600.820000", "212603.320000", "212605.820000", "212608.320000", "212610.820000", "212613.320000", "212615.820000", "212618.320000", "212620.820000", "212623.320000", "212625.820000", "212628.320000", "212630.820000", "212633.320000", "212635.820000", "212638.320000", "212640.820000", "212643.320000", "212645.820000", "212648.320000", "212650.820000", "212653.320000", "212655.820000", "212658.320000", "212700.820000", "212703.320000", "212705.820000", "212708.320000", "212710.820000", "212713.320000", "212715.820000", "212718.320000", "212720.820000", "212723.320000", "212725.820000", "212728.320000", "212730.820000", "212733.320000", "212735.820000", "212738.320000", "212740.820000", "212743.320000", "212745.820000", "212748.320000", "212750.820000", "212753.320000", "212755.820000", "212758.320000", "212800.820000", "212803.320000", "212805.820000", "212808.320000", "212810.820000", "212813.320000", "212815.820000", "212818.320000", "212820.820000", "212823.320000", "212825.820000", "212828.320000", "212830.820000", "212833.320000", "212835.820000", "212838.320000", "212840.820000", "212843.320000", "212845.820000", "212848.320000", "212850.820000", "212853.320000", "212855.820000", "212858.320000", "212900.820000", "212903.320000", "212905.820000", "212908.320000", "212910.820000", "212913.320000", "212915.820000"],
      "ContentTime": ["212505.078000", "212505.081000", "212505.084000", "212505.087000", "212505.090000", "212505.092000", "212505.095000", "212505.098000", "212505.100000", "212505.103000", "212505.106000", "212505.108000", "212505.111000", "212505.114000", "212505.116000", "212505.125000", "212505.127000", "212505.130000", "212505.133000", "212505.136000", "212505.138000", "212605.073000", "212605.076000", "212605.078000", "212605.081000", "212605.084000", "212605.086000", "212605.089000", "212605.092000", "212605.094000", "212605.097000", "212605.100000", "212605.102000", "212605.105000", "212605.108000", "212605.110000", "212605.113000", "212605.116000", "212605.118000", "212605.121000", "212605.124000", "212605.126000", "212605.129000", "212605.131000", "212605.134000", "212705.073000", "212705.075000", "212705.078000", "212705.081000", "212705.084000", "212705.086000", "212705.095000", "212705.097000", "212705.100000", "212705.102000", "212705.105000", "212705.108000", "212705.111000", "212705.113000", "212705.116000", "212705.119000", "212705.121000", "212705.124000", "212705.127000", "212705.129000", "212705.132000", "212705.135000", "212705.138000", "212705.140000", "212805.073000", "212805.076000", "212805.078000", "212805.081000", "212805.083000", "212805.086000", "212805.089000", "212805.091000", "212805.094000", "212805.097000", "212805.099000", "212805.102000", "212805.105000", "212805.107000", "212805.110000", "212805.112000", "212805.115000", "212805.118000", "212805.120000", "212805.123000", "212805.126000", "212805.128000", "212805.131000", "212805.133000", "212905.073000", "212905.075000", "212905.078000", "212905.081000", "212905.084000", "212905.086000", "212905.089000", "212905.092000", "212905.094000", "212905.097000", "212905.100000", "212905.103000", "212905.105000", "212905.108000", "212905.111000", "212905.113000", "212905.116000", "212905.119000", "212905.121000", "212905.124000", "212905.127000", "212905.129000", "212905.132000", "212905.135000", "212917.360000", "212917.363000", "212917.374000", "212917.376000", "212917.379000"],
      "InstanceCreationTime": ["212505.078000", "212505.081000", "212505.084000", "212505.087000", "212505.090000", "212505.092000", "212505.095000", "212505.098000", "212505.100000", "212505.103000", "212505.106000", "212505.108000", "212505.111000", "212505.114000", "212505.116000", "212505.125000", "212505.127000", "212505.130000", "212505.133000", "212505.136000", "212505.138000", "212605.073000", "212605.076000", "212605.078000", "212605.081000", "212605.084000", "212605.086000", "212605.089000", "212605.092000", "212605.094000", "212605.097000", "212605.100000", "212605.102000", "212605.105000", "212605.108000", "212605.110000", "212605.113000", "212605.116000", "212605.118000", "212605.121000", "212605.124000", "212605.126000", "212605.129000", "212605.131000", "212605.134000", "212705.073000", "212705.075000", "212705.078000", "212705.081000", "212705.084000", "212705.086000", "212705.095000", "212705.097000", "212705.100000", "212705.102000", "212705.105000", "212705.108000", "212705.111000", "212705.113000", "212705.116000", "212705.119000", "212705.121000", "212705.124000", "212705.127000", "212705.129000", "212705.132000", "212705.135000", "212705.138000", "212705.140000", "212805.073000", "212805.076000", "212805.078000", "212805.081000", "212805.083000", "212805.086000", "212805.089000", "212805.091000", "212805.094000", "212805.097000", "212805.099000", "212805.102000", "212805.105000", "212805.107000", "212805.110000", "212805.112000", "212805.115000", "212805.118000", "212805.120000", "212805.123000", "212805.126000", "212805.128000", "212805.131000", "212805.133000", "212905.073000", "212905.075000", "212905.078000", "212905.081000", "212905.084000", "212905.086000", "212905.089000", "212905.092000", "212905.094000", "212905.097000", "212905.100000", "212905.103000", "212905.105000", "212905.108000", "212905.111000", "212905.113000", "212905.116000", "212905.119000", "212905.121000", "212905.124000", "212905.127000", "212905.129000", "212905.132000", "212905.135000", "212917.360000", "212917.363000", "212917.374000", "212917.376000", "212917.379000"],
      "InstanceNumber": [1, 2, 3, 4, 5, 6, 7, 8, 9, 10, 11, 12, 13, 14, 15, 16, 17, 18, 19, 20, 21, 22, 23, 24, 25, 26, 27, 28, 29, 30, 31, 32, 33, 34, 35, 36, 37, 38, 39, 40, 41, 42, 43, 44, 45, 46, 47, 48, 49, 50, 51, 52, 53, 54, 55, 56, 57, 58, 59, 60, 61, 62, 63, 64, 65, 66, 67, 68, 69, 70, 71, 72, 73, 74, 75, 76, 77, 78, 79, 80, 81, 82, 83, 84, 85, 86, 87, 88, 89, 90, 91, 92, 93, 94, 95, 96, 97, 98, 99, 100, 101, 102, 103, 104, 105, 106, 107, 108, 109, 110, 111, 112, 113, 114, 115, 116, 117, 118, 119, 120, 121, 122],
      "LargestImagePixelValue": [2592, 1920, 2413, 1729, 2412, 2178, 2001, 2107, 1707, 2333, 2018, 1768, 2340, 1779, 1959, 1855, 2342, 1748, 2454, 1869, 2390, 1878, 2167, 1752, 2138, 2041, 2167, 1657, 1995, 2057, 2313, 2018, 1867, 2328, 2147, 1688, 1678, 2525, 1916, 2317, 1914, 2253, 2293, 1694, 2269, 1840, 2309, 2167, 1809, 2379, 1836, 1694, 2216, 1913, 2215, 2150, 1692, 2129, 1721, 1693, 2399, 2046, 2448, 2103, 1804, 2170, 2415, 1926, 1687, 2445, 2194, 1693, 2053, 2228, 1882, 2145, 1975, 2086, 2529, 2033, 1886, 1972, 2591, 2083, 1807, 2396, 2198, 1857, 1690, 2186, 2391, 2162, 1965, 2425, 2251, 1884, 1756, 2435, 2253, 1941, 2125, 2434, 1850, 1744, 2418, 2007, 2142, 2320, 2236, 1836, 1730, 2450, 1885, 1711, 2013, 2233, 1850, 1819, 1981, 2626, 1886, 1681],
      "WindowCenter": [666.0, 662.0, 663.0, 660.0, 663.0, 662.0, 661.0, 662.0, 660.0, 663.0, 662.0, 660.0, 663.0, 660.0, 662.0, 663.0, 664.0, 661.0, 664.0, 661.0, 663.0, 661.0, 662.0, 661.0, 663.0, 662.0, 662.0, 661.0, 664.0, 664.0, 664.0, 663.0, 661.0, 664.0, 663.0, 660.0, 661.0, 664.0, 661.0, 663.0, 662.0, 663.0, 663.0, 660.0, 663.0, 661.0, 663.0, 662.0, 661.0, 663.0, 661.0, 659.0, 663.0, 662.0, 663.0, 663.0, 660.0, 663.0, 661.0, 662.0, 665.0, 663.0, 664.0, 662.0, 661.0, 663.0, 663.0, 661.0, 660.0, 664.0, 662.0, 660.0, 662.0, 663.0, 661.0, 663.0, 662.0, 663.0, 664.0, 662.0, 661.0, 661.0, 664.0, 662.0, 661.0, 663.0, 662.0, 661.0, 661.0, 663.0, 664.0, 663.0, 662.0, 663.0, 663.0, 661.0, 660.0, 663.0, 663.0, 662.0, 663.0, 663.0, 661.0, 660.0, 664.0, 663.0, 663.0, 663.0, 663.0, 661.0, 661.0, 663.0, 661.0, 660.0, 662.0, 663.0, 662.0, 663.0, 663.0, 666.0, 662.0, 661.0],
      "WindowWidth": [1426.0, 1414.0, 1416.0, 1409.0, 1417.0, 1413.0, 1412.0, 1414.0, 1410.0, 1417.0, 1414.0, 1411.0, 1416.0, 1410.0, 1416.0, 1416.0, 1419.0, 1412.0, 1418.0, 1412.0, 1416.0, 1411.0, 1416.0, 1412.0, 1418.0, 1416.0, 1416.0, 1412.0, 1421.0, 1420.0, 1420.0, 1417.0, 1414.0, 1419.0, 1417.0, 1411.0, 1412.0, 1420.0, 1413.0, 1417.0, 1416.0, 1418.0, 1416.0, 1410.0, 1417.0, 1412.0, 1417.0, 1416.0, 1412.0, 1418.0, 1412.0, 1409.0, 1418.0, 1415.0, 1417.0, 1416.0, 1411.0, 1417.0, 1414.0, 1414.0, 1423.0, 1418.0, 1420.0, 1415.0, 1414.0, 1417.0, 1418.0, 1413.0, 1410.0, 1419.0, 1415.0, 1410.0, 1415.0, 1418.0, 1413.0, 1417.0, 1416.0, 1417.0, 1420.0, 1415.0, 1413.0, 1413.0, 1418.0, 1414.0, 1412.0, 1417.0, 1415.0, 1413.0, 1412.0, 1418.0, 1420.0, 1417.0, 1415.0, 1418.0, 1416.0, 1413.0, 1411.0, 1418.0, 1417.0, 1415.0, 1417.0, 1418.0, 1412.0, 1410.0, 1418.0, 1417.0, 1418.0, 1418.0, 1417.0, 1413.0, 1412.0, 1418.0, 1412.0, 1411.0, 1414.0, 1417.0, 1416.0, 1418.0, 1418.0, 1423.0, 1414.0, 1412.0]
    },
    "slices": {}
  }
}