{
  "AcquisitionMatrixPE": 72,
  "AcquisitionNumber": 1,
  "AcquisitionTime": "20:37:37.400000",
  "BandwidthPerPixelPhaseEncode": 24.366,
  "BaseResolution": 72,
  "BodyPartExamined": "BRAIN",
  "CoilCombinationMethod": "Sum of Squares",
  "ConsistencyInfo": "N4_VE11C_LATEST_20160120",
  "ConversionSoftware": "dcm2niix",
  "ConversionSoftwareVersion": "v1.0.20220720",
  "DerivedVendorReportedEchoSpacing": 0.000570011,
  "DeviceSerialNumber": "45219",
  "DwellTime": 3.5e-06,
  "EchoTime": 0.03,
  "EchoTrainLength": 72,
  "EffectiveEchoSpacing": 0.000570011,
  "FlipAngle": 80,
  "HeudiconvVersion": "1.1.6",
  "ImageComments": "Reference volume for motion correction.",
  "ImageOrientationPatientDICOM": [0.999695, 0.0192079, -0.0154959, -0.0174498, 0.994154, 0.106552],
  "ImageOrientationText": "Tra>Cor(6.1)>Sag(-1.0)",
  "ImageType": [
    "ORIGINAL",
    "PRIMARY",
    "M",
    "ND",
    "NORM",
    "MOCO",
    "MOSAIC"
],
  "ImagingFrequency": 123.182,
  "InPlanePhaseEncodingDirectionDICOM": "COL",
  "InstitutionAddress": "First Avenue 660,New York,NYC,US,10016",
  "InstitutionName": "NYU LANGONE CBI",
  "InstitutionalDepartmentName": "Department",
  "MRAcquisitionType": "2D",
  "MagneticFieldStrength": 3,
  "Manufacturer": "Siemens",
  "ManufacturersModelName": "Skyra",
  "MatrixCoilMode": "SENSE",
  "Modality": "MR",
  "NonlinearGradientCorrection": false,
  "PartialFourier": 1,
  "PatientPosition": "HFS",
  "PercentPhaseFOV": 100,
  "PercentSampling": 100,
  "PhaseEncodingDirection": "j-",
  "PhaseEncodingSteps": 72,
  "PhaseResolution": 1,
  "PixelBandwidth": 1985,
  "ProcedureStepDescription": "MRI BRAIN WITHOUT IV CONTRAST",
  "ProtocolName": "REST_1_MoCo",
  "PulseSequenceDetails": "%SiemensSeq%\\ep2d_bold",
  "ReceiveCoilActiveElements": "HE1-4",
  "ReceiveCoilName": "HeadNeck_20",
  "ReconMatrixPE": 72,
  "RepetitionTime": 2.5,
  "SAR": 0.148751,
  "ScanOptions": "FS",
  "ScanningSequence": "EP",
  "SequenceName": "*epfid2d1_72",
  "SequenceVariant": "SK",
  "SeriesDescription": "MoCoSeries",
  "SeriesNumber": 7,
  "ShimSetting": [-885, -7069, 5122, 472, -194, 8, 327, -195],
  "SliceThickness": 3,
  "SliceTiming": [1.24, 0, 1.305, 0.065, 1.37, 0.13, 1.435, 0.195, 1.5, 0.26, 1.565, 0.325, 1.6325, 0.3925, 1.6975, 0.4575, 1.7625, 0.5225, 1.8275, 0.5875, 1.8925, 0.6525, 1.9575, 0.7175, 2.0225, 0.7825, 2.0875, 0.8475, 2.1525, 0.9125, 2.2175, 0.9775, 2.285, 1.045, 2.35, 1.11, 2.415, 1.175],
  "SoftwareVersions": "syngo MR E11",
  "SpacingBetweenSlices": 3,
  "StationName": "MRC45219",
  "TaskName": "rest",
  "TotalReadoutTime": 0.0404708,
  "TxRefAmp": 431.736,
  "dcmmeta_affine": [
    [-2.999086380004883, -0.05234934389591217, -0.05235594883561134, 109.0136489868164],
    [-0.05762362852692604, 2.982462167739868, 0.3187468349933624, -106.78932189941406],
    [-0.04648781195282936, -0.3196553885936737, 2.9825592041015625, -11.690547943115234],
    [0.0, 0.0, 0.0, 1.0]
],
  "dcmmeta_reorient_transform": [
    [0.0, -1.0, 0.0, 71.0],
    [1.0, 0.0, 0.0, 0.0],
    [0.0, 0.0, 1.0, 0.0],
    [0.0, 0.0, 0.0, 1.0]
],
  "dcmmeta_shape": [72, 72, 38, 122],
  "dcmmeta_slice_dim": 2,
  "dcmmeta_version": 0.6,
  "global": {
    "const": {
      "AcquisitionMatrix": [72, 0, 0, 72],
      "AngioFlag": "N",
      "BitsAllocated": 16,
      "BitsStored": 12,
      "BodyPartExamined": "BRAIN",
      "Columns": 504,
      "CountryOfResidence": "United States of America [1]",
      "EchoNumbers": 1,
      "EchoTime": 30.0,
      "EchoTrainLength": 72,
      "FlipAngle": 80.0,
      "HighBit": 11,
      "ImageOrientationPatient": [0.99969542032785, 0.01920787565691, -0.0154959377988, -0.0174497816644, 0.9941540220715, 0.10655179735196],
      "ImagePositionPatient": [-741.79201961488, -761.62399696921, -93.39027755169],
      "ImageType": [
        "ORIGINAL",
        "PRIMARY",
        "M",
        "ND",
        "NORM",
        "MOCO",
        "MOSAIC"
],
      "ImagedNucleus": "1H",
      "ImagingFrequency": 123.181886,
      "InPlanePhaseEncodingDirection": "COL",
      "MRAcquisitionType": "2D",
      "MagneticFieldStrength": 3.0,
      "Manufacturer": "SIEMENS",
      "ManufacturerModelName": "Skyra",
      "Modality": "MR",
      "NumberOfAverages": 1.0,
      "NumberOfPhaseEncodingSteps": 72,
      "PercentPhaseFieldOfView": 100.0,
      "PercentSampling": 100.0,
      "PerformedProcedureStepStartTime": "202745.903000",
      "PhotometricInterpretation": "MONOCHROME2",
      "PixelBandwidth": 1985.0,
      "PixelRepresentation": 0,
      "PixelSpacing": [3.0, 3.0],
      "PregnancyStatus": 4,
      "ProcedureCodeSequence": [
        {
          "CodeMeaning": "MRI BRAIN WITHOUT IV CONTRAST",
          "CodeValue": "IMG269",
          "CodingSchemeDesignator": "L"
        }
],
      "ProtocolName": "REST_1",
      "RepetitionTime": 2500.0,
      "RequestAttributesSequence": [
        {
          "ScheduledProcedureStepDescription": "MRI BRAIN WITHOUT IV CONTRAST",
          "ScheduledProcedureStepID": "E9621043",
          "ScheduledProtocolCodeSequence": [
            {
              "CodeMeaning": "MRI BRAIN WITHOUT IV CONTRAST",
              "CodeValue": "651061",
              "CodingSchemeDesignator": "L"
            }
]
        }
],
      "RequestedProcedureCodeSequence": [
        {
          "CodeMeaning": "MRI BRAIN WITHOUT IV CONTRAST",
          "CodeValue": "IMG269",
          "CodingSchemeDesignator": "L"
        }
],
      "Rows": 504,
      "SAR": 0.14875077949289,
      "SamplesPerPixel": 1,
      "ScanOptions": "FS",
      "ScanningSequence": "EP",
      "SequenceName": "*epfid2d1_72",
      "SequenceVariant": "SK",
      "SeriesDescription": "MoCoSeries",
      "SeriesNumber": 7,
      "SeriesTime": "203826.713000",
      "SliceLocation": -24.871340146521,
      "SliceThickness": 3.0,
      "SmallestImagePixelValue": 0,
      "SmokingStatus": "UNKNOWN",
      "SoftwareVersions": "syngo MR E11",
      "SpacingBetweenSlices": 3.0000000148504,
      "SpecificCharacterSet": "ISO_IR 100",
      "StudyTime": "202745.762000",
      "TransmitCoilName": "Body",
      "VariableFlipAngleFlag": "N",
      "WindowCenterWidthExplanation": "Algo1",
      "dBdt": 0.0},
    "slices": {}
  },
  "time": {
    "samples": {
      "AcquisitionNumber": [1, 2, 3, 4, 5, 6, 7, 8, 9, 10, 11, 12, 13, 14, 15, 16, 17, 18, 19, 20, 21, 22, 23, 24, 25, 26, 27, 28, 29, 30, 31, 32, 33, 34, 35, 36, 37, 38, 39, 40, 41, 42, 43, 44, 45, 46, 47, 48, 49, 50, 51, 52, 53, 54, 55, 56, 57, 58, 59, 60, 61, 62, 63, 64, 65, 66, 67, 68, 69, 70, 71, 72, 73, 74, 75, 76, 77, 78, 79, 80, 81, 82, 83, 84, 85, 86, 87, 88, 89, 90, 91, 92, 93, 94, 95, 96, 97, 98, 99, 100, 101, 102, 103, 104, 105, 106, 107, 108, 109, 110, 111, 112, 113, 114, 115, 116, 117, 118, 119, 120, 121, 122],
      "AcquisitionTime": ["203737.400000", "203739.900000", "203742.400000", "203744.900000", "203747.400000", "203749.900000", "203752.400000", "203754.900000", "203757.400000", "203759.900000", "203802.400000", "203804.900000", "203807.400000", "203809.900000", "203812.400000", "203814.900000", "203817.400000", "203819.900000", "203822.400000", "203824.900000", "203827.400000", "203829.900000", "203832.400000", "203834.900000", "203837.400000", "203839.900000", "203842.400000", "203844.900000", "203847.400000", "203849.900000", "203852.400000", "203854.900000", "203857.400000", "203859.900000", "203902.400000", "203904.900000", "203907.400000", "203909.900000", "203912.400000", "203914.900000", "203917.400000", "203919.900000", "203922.400000", "203924.900000", "203927.400000", "203929.900000", "203932.400000", "203934.900000", "203937.400000", "203939.900000", "203942.400000", "203944.900000", "203947.400000", "203949.900000", "203952.400000", "203954.900000", "203957.400000", "203959.900000", "204002.400000", "204004.900000", "204007.400000", "204009.900000", "204012.400000", "204014.900000", "204017.400000", "204019.900000", "204022.400000", "204024.900000", "204027.400000", "204029.900000", "204032.400000", "204034.900000", "204037.400000", "204039.900000", "204042.400000", "204044.900000", "204047.400000", "204049.900000", "204052.400000", "204054.900000", "204057.400000", "204059.900000", "204102.400000", "204104.900000", "204107.400000", "204109.900000", "204112.400000", "204114.900000", "204117.400000", "204119.900000", "204122.400000", "204124.900000", "204127.400000", "204129.900000", "204132.400000", "204134.900000", "204137.400000", "204139.900000", "204142.400000", "204144.900000", "204147.400000", "204149.900000", "204152.400000", "204154.900000", "204157.400000", "204159.900000", "204202.400000", "204204.900000", "204207.400000", "204209.900000", "204212.400000", "204214.900000", "204217.400000", "204219.900000", "204222.400000", "204224.900000", "204227.400000", "204229.900000", "204232.400000", "204234.900000", "204237.400000", "204239.900000"],
      "ContentTime": ["203826.715000", "203826.718000", "203826.720000", "203826.723000", "203826.732000", "203826.734000", "203826.737000", "203826.740000", "203826.742000", "203826.745000", "203826.748000", "203826.750000", "203826.753000", "203826.756000", "203826.758000", "203826.761000", "203826.764000", "203826.766000", "203826.769000", "203826.772000", "203926.735000", "203926.738000", "203926.740000", "203926.743000", "203926.746000", "203926.748000", "203926.751000", "203926.754000", "203926.757000", "203926.759000", "203926.763000", "203926.765000", "203926.768000", "203926.771000", "203926.773000", "203926.776000", "203926.779000", "203926.781000", "203926.784000", "203926.787000", "203926.790000", "203926.792000", "203926.795000", "203926.798000", "204026.723000", "204026.726000", "204026.729000", "204026.732000", "204026.735000", "204026.737000", "204026.740000", "204026.743000", "204026.745000", "204026.748000", "204026.751000", "204026.753000", "204026.756000", "204026.759000", "204026.761000", "204026.764000", "204026.767000", "204026.770000", "204026.772000", "204026.775000", "204026.792000", "204026.794000", "204026.797000", "204026.800000", "204126.721000", "204126.724000", "204126.727000", "204126.746000", "204126.749000", "204126.751000", "204126.754000", "204126.757000", "204126.759000", "204126.762000", "204126.765000", "204126.767000", "204126.770000", "204126.773000", "204126.776000", "204126.778000", "204126.781000", "204126.783000", "204126.786000", "204126.789000", "204126.792000", "204126.794000", "204126.797000", "204126.800000", "204206.699000", "204206.702000", "204206.705000", "204206.708000", "204206.710000", "204206.713000", "204206.716000", "204206.719000", "204206.721000", "204206.724000", "204206.727000", "204206.730000", "204206.741000", "204206.743000", "204206.746000", "204206.749000", "204241.514000", "204241.517000", "204241.520000", "204241.523000", "204241.527000", "204241.529000", "204241.532000", "204241.535000", "204241.547000", "204241.550000", "204241.553000", "204241.556000", "204241.559000", "204241.562000"],
      "InstanceCreationTime": ["203826.715000", "203826.718000", "203826.720000", "203826.723000", "203826.732000", "203826.734000", "203826.737000", "203826.740000", "203826.742000", "203826.745000", "203826.748000", "203826.750000", "203826.753000", "203826.756000", "203826.758000", "203826.761000", "203826.764000", "203826.766000", "203826.769000", "203826.772000", "203926.735000", "203926.738000", "203926.740000", "203926.743000", "203926.746000", "203926.748000", "203926.751000", "203926.754000", "203926.757000", "203926.759000", "203926.763000", "203926.765000", "203926.768000", "203926.771000", "203926.773000", "203926.776000", "203926.779000", "203926.781000", "203926.784000", "203926.787000", "203926.790000", "203926.792000", "203926.795000", "203926.798000", "204026.723000", "204026.726000", "204026.729000", "204026.732000", "204026.735000", "204026.737000", "204026.740000", "204026.743000", "204026.745000", "204026.748000", "204026.751000", "204026.753000", "204026.756000", "204026.759000", "204026.761000", "204026.764000", "204026.767000", "204026.770000", "204026.772000", "204026.775000", "204026.792000", "204026.794000", "204026.797000", "204026.800000", "204126.721000", "204126.724000", "204126.727000", "204126.746000", "204126.749000", "204126.751000", "204126.754000", "204126.757000", "204126.759000", "204126.762000", "204126.765000", "204126.767000", "204126.770000", "204126.773000", "204126.776000", "204126.778000", "204126.781000", "204126.783000", "204126.786000", "204126.789000", "204126.792000", "204126.794000", "204126.797000", "204126.800000", "204206.699000", "204206.702000", "204206.705000", "204206.708000", "204206.710000", "204206.713000", "204206.716000", "204206.719000", "204206.721000", "204206.724000", "204206.727000", "204206.730000", "204206.741000", "204206.743000", "204206.746000", "204206.749000", "204241.514000", "204241.517000", "204241.520000", "204241.523000", "204241.527000", "204241.529000", "204241.532000", "204241.535000", "204241.547000", "204241.550000", "204241.553000", "204241.556000", "204241.559000", "204241.562000"],
      "InstanceNumber": [1, 2, 3, 4, 5, 6, 7, 8, 9, 10, 11, 12, 13, 14, 15, 16, 17, 18, 19, 20, 21, 22, 23, 24, 25, 26, 27, 28, 29, 30, 31, 32, 33, 34, 35, 36, 37, 38, 39, 40, 41, 42, 43, 44, 45, 46, 47, 48, 49, 50, 51, 52, 53, 54, 55, 56, 57, 58, 59, 60, 61, 62, 63, 64, 65, 66, 67, 68, 69, 70, 71, 72, 73, 74, 75, 76, 77, 78, 79, 80, 81, 82, 83, 84, 85, 86, 87, 88, 89, 90, 91, 92, 93, 94, 95, 96, 97, 98, 99, 100, 101, 102, 103, 104, 105, 106, 107, 108, 109, 110, 111, 112, 113, 114, 115, 116, 117, 118, 119, 120, 121, 122],
      "LargestImagePixelValue": [2370, 1916, 1940, 1801, 1802, 1784, 1706, 1683, 2056, 1753, 1805, 1740, 1750, 1756, 2152, 2398, 1712, 1976, 2095, 2195, 1841, 2289, 2439, 2433, 2330, 2368, 2119, 1775, 1758, 2053, 1689, 1692, 1745, 1705, 2154, 2497, 1760, 2285, 2311, 2116, 1798, 1746, 1770, 1826, 1737, 1720, 1735, 1748, 1706, 1684, 1702, 1728, 1820, 1750, 2523, 2510, 2400, 2278, 2156, 1716, 1698, 1795, 1774, 1741, 1695, 1833, 1740, 1716, 2482, 2264, 2057, 1849, 2187, 2256, 2087, 2183, 2010, 1775, 1760, 1803, 1761, 1676, 1745, 1798, 1880, 1767, 2218, 2267, 2153, 2509, 1798, 1758, 1910, 1829, 1810, 1944, 1977, 1822, 1947, 2669, 2074, 1852, 2302, 1820, 1789, 2254, 1995, 1849, 1778, 1784, 1778, 2599, 2217, 2609, 2496, 2072, 2421, 2651, 2417, 2137, 1963, 1825],
      "WindowCenter": [655.0, 650.0, 649.0, 650.0, 651.0, 652.0, 652.0, 652.0, 654.0, 651.0, 653.0, 651.0, 653.0, 653.0, 654.0, 654.0, 652.0, 654.0, 654.0, 654.0, 652.0, 654.0, 654.0, 653.0, 652.0, 652.0, 651.0, 650.0, 650.0, 650.0, 651.0, 652.0, 654.0, 654.0, 655.0, 655.0, 651.0, 654.0, 653.0, 651.0, 648.0, 649.0, 647.0, 649.0, 650.0, 651.0, 651.0, 652.0, 651.0, 653.0, 654.0, 653.0, 652.0, 654.0, 656.0, 655.0, 654.0, 653.0, 651.0, 650.0, 651.0, 652.0, 652.0, 652.0, 652.0, 652.0, 653.0, 653.0, 656.0, 655.0, 654.0, 653.0, 654.0, 654.0, 653.0, 653.0, 651.0, 651.0, 651.0, 652.0, 651.0, 651.0, 653.0, 653.0, 653.0, 653.0, 655.0, 655.0, 654.0, 655.0, 652.0, 652.0, 652.0, 653.0, 653.0, 654.0, 654.0, 654.0, 654.0, 656.0, 652.0, 651.0, 653.0, 651.0, 652.0, 654.0, 653.0, 652.0, 652.0, 652.0, 653.0, 655.0, 653.0, 654.0, 653.0, 651.0, 653.0, 652.0, 650.0, 649.0, 647.0, 650.0],
      "WindowWidth": [1384.0, 1374.0, 1371.0, 1373.0, 1375.0, 1377.0, 1378.0, 1379.0, 1383.0, 1375.0, 1379.0, 1376.0, 1379.0, 1379.0, 1382.0, 1382.0, 1377.0, 1381.0, 1382.0, 1382.0, 1379.0, 1381.0, 1381.0, 1379.0, 1377.0, 1377.0, 1375.0, 1372.0, 1373.0, 1373.0, 1376.0, 1377.0, 1381.0, 1382.0, 1384.0, 1383.0, 1376.0, 1380.0, 1379.0, 1374.0, 1369.0, 1371.0, 1367.0, 1371.0, 1374.0, 1374.0, 1376.0, 1378.0, 1375.0, 1380.0, 1381.0, 1380.0, 1378.0, 1381.0, 1386.0, 1384.0, 1381.0, 1378.0, 1376.0, 1373.0, 1375.0, 1376.0, 1377.0, 1377.0, 1377.0, 1377.0, 1379.0, 1380.0, 1385.0, 1383.0, 1381.0, 1379.0, 1381.0, 1381.0, 1379.0, 1380.0, 1375.0, 1374.0, 1376.0, 1377.0, 1374.0, 1376.0, 1379.0, 1380.0, 1380.0, 1380.0, 1383.0, 1383.0, 1381.0, 1382.0, 1377.0, 1378.0, 1377.0, 1379.0, 1380.0, 1382.0, 1381.0, 1381.0, 1382.0, 1385.0, 1376.0, 1375.0, 1380.0, 1376.0, 1377.0, 1381.0, 1379.0, 1378.0, 1377.0, 1378.0, 1378.0, 1383.0, 1379.0, 1380.0, 1378.0, 1375.0, 1378.0, 1376.0, 1372.0, 1371.0, 1366.0, 1372.0]
    },
    "slices": {}
  }
}