{
  "AcquisitionMatrixPE": 72,
  "AcquisitionNumber": 1,
  "AcquisitionTime": "20:37:37.400000",
  "BandwidthPerPixelPhaseEncode": 24.366,
  "BaseResolution": 72,
  "BodyPartExamined": "BRAIN",
  "CoilCombinationMethod": "Sum of Squares",
  "ConsistencyInfo": "N4_VE11C_LATEST_20160120",
  "ConversionSoftware": "dcm2niix",
  "ConversionSoftwareVersion": "v1.0.20220720",
  "DerivedVendorReportedEchoSpacing": 0.000570011,
  "DeviceSerialNumber": "45219",
  "DwellTime": 3.5e-06,
  "EchoTime": 0.03,
  "EchoTrainLength": 72,
  "EffectiveEchoSpacing": 0.000570011,
  "FlipAngle": 80,
  "HeudiconvVersion": "1.1.6",
  "ImageOrientationPatientDICOM": [0.999695, 0.0192079, -0.0154959, -0.0174498, 0.994154, 0.106552],
  "ImageOrientationText": "Tra>Cor(6.1)>Sag(-1.0)",
  "ImageType": [
    "ORIGINAL",
    "PRIMARY",
    "M",
    "ND",
    "NORM",
    "MOSAIC"
],
  "ImagingFrequency": 123.182,
  "InPlanePhaseEncodingDirectionDICOM": "COL",
  "InstitutionAddress": "First Avenue 660,New York,NYC,US,10016",
  "InstitutionName": "NYU LANGONE CBI",
  "InstitutionalDepartmentName": "Department",
  "MRAcquisitionType": "2D",
  "MagneticFieldStrength": 3,
  "Manufacturer": "Siemens",
  "ManufacturersModelName": "Skyra",
  "MatrixCoilMode": "SENSE",
  "Modality": "MR",
  "NonlinearGradientCorrection": false,
  "PartialFourier": 1,
  "PatientPosition": "HFS",
  "PercentPhaseFOV": 100,
  "PercentSampling": 100,
  "PhaseEncodingDirection": "j-",
  "PhaseEncodingSteps": 72,
  "PhaseResolution": 1,
  "PixelBandwidth": 1985,
  "ProcedureStepDescription": "MRI BRAIN WITHOUT IV CONTRAST",
  "ProtocolName": "REST_1",
  "PulseSequenceDetails": "%SiemensSeq%\\ep2d_bold",
  "ReceiveCoilActiveElements": "HE1-4",
  "ReceiveCoilName": "HeadNeck_20",
  "ReconMatrixPE": 72,
  "RepetitionTime": 2.5,
  "SAR": 0.148751,
  "ScanOptions": "FS",
  "ScanningSequence": "EP",
  "SequenceName": "*epfid2d1_72",
  "SequenceVariant": "SK",
  "SeriesDescription": "REST_1",
  "SeriesNumber": 6,
  "ShimSetting": [-885, -7069, 5122, 472, -194, 8, 327, -195],
  "SliceThickness": 3,
  "SliceTiming": [1.24, 0, 1.305, 0.065, 1.37, 0.13, 1.435, 0.195, 1.5, 0.26, 1.565, 0.325, 1.6325, 0.3925, 1.6975, 0.4575, 1.7625, 0.5225, 1.8275, 0.5875, 1.8925, 0.6525, 1.9575, 0.7175, 2.0225, 0.7825, 2.0875, 0.8475, 2.1525, 0.9125, 2.2175, 0.9775, 2.285, 1.045, 2.35, 1.11, 2.415, 1.175],
  "SoftwareVersions": "syngo MR E11",
  "SpacingBetweenSlices": 3,
  "StationName": "MRC45219",
  "TaskName": "rest",
  "TotalReadoutTime": 0.0404708,
  "TxRefAmp": 431.736,
  "dcmmeta_affine": [
    [-2.999086380004883, -0.05234934389591217, -0.05235594883561134, 109.0136489868164],
    [-0.05762362852692604, 2.982462167739868, 0.3187468349933624, -106.78932189941406],
    [-0.04648781195282936, -0.3196553885936737, 2.9825592041015625, -11.690547943115234],
    [0.0, 0.0, 0.0, 1.0]
],
  "dcmmeta_reorient_transform": [
    [0.0, -1.0, 0.0, 71.0],
    [1.0, 0.0, 0.0, 0.0],
    [0.0, 0.0, 1.0, 0.0],
    [0.0, 0.0, 0.0, 1.0]
],
  "dcmmeta_shape": [72, 72, 38, 122],
  "dcmmeta_slice_dim": 2,
  "dcmmeta_version": 0.6,
  "global": {
    "const": {
      "AcquisitionMatrix": [72, 0, 0, 72],
      "AngioFlag": "N",
      "BitsAllocated": 16,
      "BitsStored": 12,
      "BodyPartExamined": "BRAIN",
      "Columns": 504,
      "CountryOfResidence": "United States of America [1]",
      "EchoNumbers": 1,
      "EchoTime": 30.0,
      "EchoTrainLength": 72,
      "FlipAngle": 80.0,
      "HighBit": 11,
      "ImageOrientationPatient": [0.99969542032785, 0.01920787565691, -0.0154959377988, -0.0174497816644, 0.9941540220715, 0.10655179735196],
      "ImagePositionPatient": [-741.79201961488, -761.62399696921, -93.39027755169],
      "ImageType": [
        "ORIGINAL",
        "PRIMARY",
        "M",
        "ND",
        "NORM",
        "MOSAIC"
],
      "ImagedNucleus": "1H",
      "ImagingFrequency": 123.181886,
      "InPlanePhaseEncodingDirection": "COL",
      "MRAcquisitionType": "2D",
      "MagneticFieldStrength": 3.0,
      "Manufacturer": "SIEMENS",
      "ManufacturerModelName": "Skyra",
      "Modality": "MR",
      "NumberOfAverages": 1.0,
      "NumberOfPhaseEncodingSteps": 72,
      "PercentPhaseFieldOfView": 100.0,
      "PercentSampling": 100.0,
      "PerformedProcedureStepStartTime": "202745.903000",
      "PhotometricInterpretation": "MONOCHROME2",
      "PixelBandwidth": 1985.0,
      "PixelRepresentation": 0,
      "PixelSpacing": [3.0, 3.0],
      "PregnancyStatus": 4,
      "ProcedureCodeSequence": [
        {
          "CodeMeaning": "MRI BRAIN WITHOUT IV CONTRAST",
          "CodeValue": "IMG269",
          "CodingSchemeDesignator": "L"
        }
],
      "ProtocolName": "REST_1",
      "RepetitionTime": 2500.0,
      "RequestAttributesSequence": [
        {
          "ScheduledProcedureStepDescription": "MRI BRAIN WITHOUT IV CONTRAST",
          "ScheduledProcedureStepID": "E9621043",
          "ScheduledProtocolCodeSequence": [
            {
              "CodeMeaning": "MRI BRAIN WITHOUT IV CONTRAST",
              "CodeValue": "651061",
              "CodingSchemeDesignator": "L"
            }
]
        }
],
      "RequestedProcedureCodeSequence": [
        {
          "CodeMeaning": "MRI BRAIN WITHOUT IV CONTRAST",
          "CodeValue": "IMG269",
          "CodingSchemeDesignator": "L"
        }
],
      "Rows": 504,
      "SAR": 0.14875077949289,
      "SamplesPerPixel": 1,
      "ScanOptions": "FS",
      "ScanningSequence": "EP",
      "SequenceName": "*epfid2d1_72",
      "SequenceVariant": "SK",
      "SeriesDescription": "REST_1",
      "SeriesNumber": 6,
      "SeriesTime": "203826.623000",
      "SliceLocation": -24.871340146521,
      "SliceThickness": 3.0,
      "SmallestImagePixelValue": 0,
      "SmokingStatus": "UNKNOWN",
      "SoftwareVersions": "syngo MR E11",
      "SpacingBetweenSlices": 3.0000000148504,
      "SpecificCharacterSet": "ISO_IR 100",
      "StudyTime": "202745.762000",
      "TransmitCoilName": "Body",
      "VariableFlipAngleFlag": "N",
      "WindowCenterWidthExplanation": "Algo1",
      "dBdt": 0.0},
    "slices": {}
  },
  "time": {
    "samples": {
      "AcquisitionNumber": [1, 2, 3, 4, 5, 6, 7, 8, 9, 10, 11, 12, 13, 14, 15, 16, 17, 18, 19, 20, 21, 22, 23, 24, 25, 26, 27, 28, 29, 30, 31, 32, 33, 34, 35, 36, 37, 38, 39, 40, 41, 42, 43, 44, 45, 46, 47, 48, 49, 50, 51, 52, 53, 54, 55, 56, 57, 58, 59, 60, 61, 62, 63, 64, 65, 66, 67, 68, 69, 70, 71, 72, 73, 74, 75, 76, 77, 78, 79, 80, 81, 82, 83, 84, 85, 86, 87, 88, 89, 90, 91, 92, 93, 94, 95, 96, 97, 98, 99, 100, 101, 102, 103, 104, 105, 106, 107, 108, 109, 110, 111, 112, 113, 114, 115, 116, 117, 118, 119, 120, 121, 122],
      "AcquisitionTime": ["203737.400000", "203739.900000", "203742.400000", "203744.900000", "203747.400000", "203749.900000", "203752.400000", "203754.900000", "203757.400000", "203759.900000", "203802.400000", "203804.900000", "203807.400000", "203809.900000", "203812.400000", "203814.900000", "203817.400000", "203819.900000", "203822.400000", "203824.900000", "203827.400000", "203829.900000", "203832.400000", "203834.900000", "203837.400000", "203839.900000", "203842.400000", "203844.900000", "203847.400000", "203849.900000", "203852.400000", "203854.900000", "203857.400000", "203859.900000", "203902.400000", "203904.900000", "203907.400000", "203909.900000", "203912.400000", "203914.900000", "203917.400000", "203919.900000", "203922.400000", "203924.900000", "203927.400000", "203929.900000", "203932.400000", "203934.900000", "203937.400000", "203939.900000", "203942.400000", "203944.900000", "203947.400000", "203949.900000", "203952.400000", "203954.900000", "203957.400000", "203959.900000", "204002.400000", "204004.900000", "204007.400000", "204009.900000", "204012.400000", "204014.900000", "204017.400000", "204019.900000", "204022.400000", "204024.900000", "204027.400000", "204029.900000", "204032.400000", "204034.900000", "204037.400000", "204039.900000", "204042.400000", "204044.900000", "204047.400000", "204049.900000", "204052.400000", "204054.900000", "204057.400000", "204059.900000", "204102.400000", "204104.900000", "204107.400000", "204109.900000", "204112.400000", "204114.900000", "204117.400000", "204119.900000", "204122.400000", "204124.900000", "204127.400000", "204129.900000", "204132.400000", "204134.900000", "204137.400000", "204139.900000", "204142.400000", "204144.900000", "204147.400000", "204149.900000", "204152.400000", "204154.900000", "204157.400000", "204159.900000", "204202.400000", "204204.900000", "204207.400000", "204209.900000", "204212.400000", "204214.900000", "204217.400000", "204219.900000", "204222.400000", "204224.900000", "204227.400000", "204229.900000", "204232.400000", "204234.900000", "204237.400000", "204239.900000"],
      "ContentTime": ["203826.627000", "203826.630000", "203826.633000", "203826.635000", "203826.638000", "203826.641000", "203826.643000", "203826.646000", "203826.649000", "203826.651000", "203826.654000", "203826.656000", "203826.659000", "203826.662000", "203826.664000", "203826.667000", "203826.670000", "203826.672000", "203826.675000", "203826.678000", "203926.620000", "203926.623000", "203926.626000", "203926.629000", "203926.631000", "203926.634000", "203926.637000", "203926.639000", "203926.642000", "203926.644000", "203926.656000", "203926.658000", "203926.661000", "203926.663000", "203926.666000", "203926.677000", "203926.679000", "203926.682000", "203926.685000", "203926.687000", "203926.690000", "203926.693000", "203926.695000", "203926.698000", "204026.621000", "204026.623000", "204026.626000", "204026.629000", "204026.631000", "204026.634000", "204026.637000", "204026.639000", "204026.642000", "204026.645000", "204026.647000", "204026.650000", "204026.652000", "204026.655000", "204026.658000", "204026.660000", "204026.663000", "204026.665000", "204026.668000", "204026.671000", "204026.673000", "204026.676000", "204026.679000", "204026.681000", "204126.621000", "204126.623000", "204126.626000", "204126.629000", "204126.631000", "204126.634000", "204126.637000", "204126.639000", "204126.642000", "204126.644000", "204126.647000", "204126.650000", "204126.652000", "204126.655000", "204126.657000", "204126.660000", "204126.663000", "204126.665000", "204126.668000", "204126.671000", "204126.673000", "204126.676000", "204126.679000", "204126.681000", "204206.621000", "204206.624000", "204206.627000", "204206.629000", "204206.632000", "204206.634000", "204206.637000", "204206.640000", "204206.642000", "204206.645000", "204206.647000", "204206.650000", "204206.653000", "204206.655000", "204206.658000", "204206.660000", "204241.379000", "204241.382000", "204241.393000", "204241.398000", "204241.403000", "204241.406000", "204241.410000", "204241.418000", "204241.423000", "204241.428000", "204241.435000", "204241.438000", "204241.452000", "204241.456000"],
      "InstanceCreationTime": ["203826.627000", "203826.630000", "203826.633000", "203826.635000", "203826.638000", "203826.641000", "203826.643000", "203826.646000", "203826.649000", "203826.651000", "203826.654000", "203826.656000", "203826.659000", "203826.662000", "203826.664000", "203826.667000", "203826.670000", "203826.672000", "203826.675000", "203826.678000", "203926.620000", "203926.623000", "203926.626000", "203926.629000", "203926.631000", "203926.634000", "203926.637000", "203926.639000", "203926.642000", "203926.644000", "203926.656000", "203926.658000", "203926.661000", "203926.663000", "203926.666000", "203926.677000", "203926.679000", "203926.682000", "203926.685000", "203926.687000", "203926.690000", "203926.693000", "203926.695000", "203926.698000", "204026.621000", "204026.623000", "204026.626000", "204026.629000", "204026.631000", "204026.634000", "204026.637000", "204026.639000", "204026.642000", "204026.645000", "204026.647000", "204026.650000", "204026.652000", "204026.655000", "204026.658000", "204026.660000", "204026.663000", "204026.665000", "204026.668000", "204026.671000", "204026.673000", "204026.676000", "204026.679000", "204026.681000", "204126.621000", "204126.623000", "204126.626000", "204126.629000", "204126.631000", "204126.634000", "204126.637000", "204126.639000", "204126.642000", "204126.644000", "204126.647000", "204126.650000", "204126.652000", "204126.655000", "204126.657000", "204126.660000", "204126.663000", "204126.665000", "204126.668000", "204126.671000", "204126.673000", "204126.676000", "204126.679000", "204126.681000", "204206.621000", "204206.624000", "204206.627000", "204206.629000", "204206.632000", "204206.634000", "204206.637000", "204206.640000", "204206.642000", "204206.645000", "204206.647000", "204206.650000", "204206.653000", "204206.655000", "204206.658000", "204206.660000", "204241.379000", "204241.382000", "204241.393000", "204241.398000", "204241.403000", "204241.406000", "204241.410000", "204241.418000", "204241.423000", "204241.428000", "204241.435000", "204241.438000", "204241.452000", "204241.456000"],
      "InstanceNumber": [1, 2, 3, 4, 5, 6, 7, 8, 9, 10, 11, 12, 13, 14, 15, 16, 17, 18, 19, 20, 21, 22, 23, 24, 25, 26, 27, 28, 29, 30, 31, 32, 33, 34, 35, 36, 37, 38, 39, 40, 41, 42, 43, 44, 45, 46, 47, 48, 49, 50, 51, 52, 53, 54, 55, 56, 57, 58, 59, 60, 61, 62, 63, 64, 65, 66, 67, 68, 69, 70, 71, 72, 73, 74, 75, 76, 77, 78, 79, 80, 81, 82, 83, 84, 85, 86, 87, 88, 89, 90, 91, 92, 93, 94, 95, 96, 97, 98, 99, 100, 101, 102, 103, 104, 105, 106, 107, 108, 109, 110, 111, 112, 113, 114, 115, 116, 117, 118, 119, 120, 121, 122],
      "LargestImagePixelValue": [2370, 1904, 1924, 1800, 1803, 1788, 1714, 1693, 1994, 1753, 1812, 1747, 1744, 1731, 2002, 2218, 1727, 1879, 1977, 2040, 1729, 2156, 2279, 2282, 2193, 2237, 2019, 1769, 1783, 2099, 1712, 1723, 1738, 1719, 2066, 2344, 1773, 2194, 2152, 2003, 1768, 1757, 1728, 1836, 1758, 1727, 1740, 1784, 1717, 1716, 1707, 1769, 1768, 1762, 2365, 2363, 2265, 2112, 2033, 1697, 1707, 1733, 1759, 1756, 1743, 1829, 1736, 1713, 2249, 2043, 1882, 1716, 1979, 2028, 1903, 2023, 2046, 1777, 1806, 1755, 1766, 1725, 1751, 1769, 1775, 1807, 2015, 2057, 1951, 2325, 1773, 1775, 1890, 1823, 1832, 1806, 1819, 1803, 1828, 2422, 1939, 1813, 2130, 1788, 1772, 2047, 1823, 1852, 1763, 1764, 1746, 2336, 2065, 2363, 2305, 1955, 2233, 2399, 2200, 1925, 1919, 1774],
      "WindowCenter": [655.0, 650.0, 649.0, 650.0, 651.0, 652.0, 652.0, 652.0, 653.0, 650.0, 652.0, 651.0, 652.0, 652.0, 653.0, 653.0, 652.0, 653.0, 653.0, 653.0, 652.0, 653.0, 653.0, 652.0, 651.0, 651.0, 650.0, 649.0, 650.0, 650.0, 651.0, 652.0, 653.0, 654.0, 655.0, 654.0, 651.0, 653.0, 652.0, 650.0, 648.0, 649.0, 647.0, 649.0, 650.0, 650.0, 651.0, 652.0, 651.0, 653.0, 653.0, 653.0, 652.0, 653.0, 655.0, 654.0, 653.0, 652.0, 651.0, 650.0, 650.0, 651.0, 651.0, 652.0, 652.0, 652.0, 652.0, 653.0, 654.0, 653.0, 652.0, 652.0, 653.0, 653.0, 652.0, 652.0, 651.0, 650.0, 651.0, 651.0, 650.0, 651.0, 653.0, 652.0, 652.0, 653.0, 653.0, 653.0, 652.0, 653.0, 651.0, 652.0, 652.0, 652.0, 653.0, 652.0, 652.0, 653.0, 653.0, 654.0, 650.0, 650.0, 652.0, 651.0, 651.0, 652.0, 652.0, 652.0, 651.0, 652.0, 652.0, 654.0, 652.0, 653.0, 651.0, 650.0, 651.0, 650.0, 649.0, 648.0, 646.0, 649.0],
      "WindowWidth": [1384.0, 1374.0, 1371.0, 1372.0, 1375.0, 1377.0, 1378.0, 1379.0, 1381.0, 1374.0, 1379.0, 1376.0, 1379.0, 1379.0, 1381.0, 1380.0, 1377.0, 1379.0, 1381.0, 1380.0, 1377.0, 1380.0, 1379.0, 1377.0, 1376.0, 1375.0, 1374.0, 1372.0, 1374.0, 1373.0, 1376.0, 1378.0, 1381.0, 1382.0, 1383.0, 1381.0, 1376.0, 1380.0, 1378.0, 1373.0, 1368.0, 1370.0, 1366.0, 1371.0, 1374.0, 1374.0, 1376.0, 1378.0, 1375.0, 1380.0, 1380.0, 1381.0, 1378.0, 1381.0, 1384.0, 1382.0, 1379.0, 1377.0, 1375.0, 1373.0, 1375.0, 1375.0, 1376.0, 1377.0, 1378.0, 1377.0, 1379.0, 1380.0, 1382.0, 1380.0, 1379.0, 1377.0, 1379.0, 1379.0, 1377.0, 1378.0, 1374.0, 1374.0, 1376.0, 1376.0, 1374.0, 1376.0, 1379.0, 1379.0, 1378.0, 1379.0, 1380.0, 1380.0, 1378.0, 1380.0, 1376.0, 1378.0, 1377.0, 1379.0, 1381.0, 1379.0, 1379.0, 1381.0, 1380.0, 1382.0, 1373.0, 1374.0, 1378.0, 1376.0, 1376.0, 1378.0, 1377.0, 1378.0, 1376.0, 1378.0, 1377.0, 1381.0, 1377.0, 1378.0, 1376.0, 1374.0, 1375.0, 1372.0, 1369.0, 1367.0, 1365.0, 1371.0]
    },
    "slices": {}
  }
}