{
  "AcquisitionMatrixPE": 72,
  "AcquisitionNumber": 1,
  "AcquisitionTime": "20:43:16.290000",
  "BandwidthPerPixelPhaseEncode": 24.366,
  "BaseResolution": 72,
  "BodyPartExamined": "BRAIN",
  "CoilCombinationMethod": "Sum of Squares",
  "ConsistencyInfo": "N4_VE11C_LATEST_20160120",
  "ConversionSoftware": "dcm2niix",
  "ConversionSoftwareVersion": "v1.0.20220720",
  "DerivedVendorReportedEchoSpacing": 0.000570011,
  "DeviceSerialNumber": "45219",
  "DwellTime": 3.5e-06,
  "EchoTime": 0.03,
  "EchoTrainLength": 72,
  "EffectiveEchoSpacing": 0.000570011,
  "FlipAngle": 80,
  "HeudiconvVersion": "1.1.6",
  "ImageComments": "Reference volume for motion correction.",
  "ImageOrientationPatientDICOM": [0.999695, 0.0192079, -0.0154959, -0.0174498, 0.994154, 0.106552],
  "ImageOrientationText": "Tra>Cor(6.1)>Sag(-1.0)",
  "ImageType": [
    "ORIGINAL",
    "PRIMARY",
    "M",
    "ND",
    "NORM",
    "MOCO",
    "MOSAIC"
],
  "ImagingFrequency": 123.182,
  "InPlanePhaseEncodingDirectionDICOM": "COL",
  "InstitutionAddress": "First Avenue 660,New York,NYC,US,10016",
  "InstitutionName": "NYU LANGONE CBI",
  "InstitutionalDepartmentName": "Department",
  "MRAcquisitionType": "2D",
  "MagneticFieldStrength": 3,
  "Manufacturer": "Siemens",
  "ManufacturersModelName": "Skyra",
  "MatrixCoilMode": "SENSE",
  "Modality": "MR",
  "NonlinearGradientCorrection": false,
  "PartialFourier": 1,
  "PatientPosition": "HFS",
  "PercentPhaseFOV": 100,
  "PercentSampling": 100,
  "PhaseEncodingDirection": "j-",
  "PhaseEncodingSteps": 72,
  "PhaseResolution": 1,
  "PixelBandwidth": 1985,
  "ProcedureStepDescription": "MRI BRAIN WITHOUT IV CONTRAST",
  "ProtocolName": "REST_2_MoCo",
  "PulseSequenceDetails": "%SiemensSeq%\\ep2d_bold",
  "ReceiveCoilActiveElements": "HE1-4",
  "ReceiveCoilName": "HeadNeck_20",
  "ReconMatrixPE": 72,
  "RepetitionTime": 2.5,
  "SAR": 0.148751,
  "ScanOptions": "FS",
  "ScanningSequence": "EP",
  "SequenceName": "*epfid2d1_72",
  "SequenceVariant": "SK",
  "SeriesDescription": "MoCoSeries",
  "SeriesNumber": 9,
  "ShimSetting": [-885, -7069, 5122, 472, -194, 8, 327, -195],
  "SliceThickness": 3,
  "SliceTiming": [1.24, 0, 1.305, 0.065, 1.37, 0.13, 1.435, 0.195, 1.5, 0.26, 1.565, 0.325, 1.63, 0.39, 1.695, 0.4575, 1.7625, 0.5225, 1.8275, 0.5875, 1.8925, 0.6525, 1.9575, 0.7175, 2.0225, 0.7825, 2.0875, 0.8475, 2.1525, 0.9125, 2.2175, 0.9775, 2.2825, 1.0425, 2.35, 1.11, 2.415, 1.175],
  "SoftwareVersions": "syngo MR E11",
  "SpacingBetweenSlices": 3,
  "StationName": "MRC45219",
  "TaskName": "rest",
  "TotalReadoutTime": 0.0404708,
  "TxRefAmp": 431.736,
  "dcmmeta_affine": [
    [-2.999086380004883, -0.05234934389591217, -0.05235594883561134, 109.0136489868164],
    [-0.05762362852692604, 2.982462167739868, 0.3187468349933624, -106.78932189941406],
    [-0.04648781195282936, -0.3196553885936737, 2.9825592041015625, -11.690547943115234],
    [0.0, 0.0, 0.0, 1.0]
],
  "dcmmeta_reorient_transform": [
    [0.0, -1.0, 0.0, 71.0],
    [1.0, 0.0, 0.0, 0.0],
    [0.0, 0.0, 1.0, 0.0],
    [0.0, 0.0, 0.0, 1.0]
],
  "dcmmeta_shape": [72, 72, 38, 122],
  "dcmmeta_slice_dim": 2,
  "dcmmeta_version": 0.6,
  "global": {
    "const": {
      "AcquisitionMatrix": [72, 0, 0, 72],
      "AngioFlag": "N",
      "BitsAllocated": 16,
      "BitsStored": 12,
      "BodyPartExamined": "BRAIN",
      "Columns": 504,
      "CountryOfResidence": "United States of America [1]",
      "EchoNumbers": 1,
      "EchoTime": 30.0,
      "EchoTrainLength": 72,
      "FlipAngle": 80.0,
      "HighBit": 11,
      "ImageOrientationPatient": [0.99969542032785, 0.01920787565691, -0.0154959377988, -0.0174497816644, 0.9941540220715, 0.10655179735196],
      "ImagePositionPatient": [-741.79201961488, -761.62399696921, -93.39027755169],
      "ImageType": [
        "ORIGINAL",
        "PRIMARY",
        "M",
        "ND",
        "NORM",
        "MOCO",
        "MOSAIC"
],
      "ImagedNucleus": "1H",
      "ImagingFrequency": 123.18191,
      "InPlanePhaseEncodingDirection": "COL",
      "MRAcquisitionType": "2D",
      "MagneticFieldStrength": 3.0,
      "Manufacturer": "SIEMENS",
      "ManufacturerModelName": "Skyra",
      "Modality": "MR",
      "NumberOfAverages": 1.0,
      "NumberOfPhaseEncodingSteps": 72,
      "PercentPhaseFieldOfView": 100.0,
      "PercentSampling": 100.0,
      "PerformedProcedureStepStartTime": "202745.903000",
      "PhotometricInterpretation": "MONOCHROME2",
      "PixelBandwidth": 1985.0,
      "PixelRepresentation": 0,
      "PixelSpacing": [3.0, 3.0],
      "PregnancyStatus": 4,
      "ProcedureCodeSequence": [
        {
          "CodeMeaning": "MRI BRAIN WITHOUT IV CONTRAST",
          "CodeValue": "IMG269",
          "CodingSchemeDesignator": "L"
        }
],
      "ProtocolName": "REST_2",
      "RepetitionTime": 2500.0,
      "RequestAttributesSequence": [
        {
          "ScheduledProcedureStepDescription": "MRI BRAIN WITHOUT IV CONTRAST",
          "ScheduledProcedureStepID": "E9621043",
          "ScheduledProtocolCodeSequence": [
            {
              "CodeMeaning": "MRI BRAIN WITHOUT IV CONTRAST",
              "CodeValue": "651061",
              "CodingSchemeDesignator": "L"
            }
]
        }
],
      "RequestedProcedureCodeSequence": [
        {
          "CodeMeaning": "MRI BRAIN WITHOUT IV CONTRAST",
          "CodeValue": "IMG269",
          "CodingSchemeDesignator": "L"
        }
],
      "Rows": 504,
      "SAR": 0.14875077949289,
      "SamplesPerPixel": 1,
      "ScanOptions": "FS",
      "ScanningSequence": "EP",
      "SequenceName": "*epfid2d1_72",
      "SequenceVariant": "SK",
      "SeriesDescription": "MoCoSeries",
      "SeriesNumber": 9,
      "SeriesTime": "204412.980000",
      "SliceLocation": -24.871340146521,
      "SliceThickness": 3.0,
      "SmallestImagePixelValue": 0,
      "SmokingStatus": "UNKNOWN",
      "SoftwareVersions": "syngo MR E11",
      "SpacingBetweenSlices": 3.0000000148504,
      "SpecificCharacterSet": "ISO_IR 100",
      "StudyTime": "202745.762000",
      "TransmitCoilName": "Body",
      "VariableFlipAngleFlag": "N",
      "WindowCenterWidthExplanation": "Algo1",
      "dBdt": 0.0},
    "slices": {}
  },
  "time": {
    "samples": {
      "AcquisitionNumber": [1, 2, 3, 4, 5, 6, 7, 8, 9, 10, 11, 12, 13, 14, 15, 16, 17, 18, 19, 20, 21, 22, 23, 24, 25, 26, 27, 28, 29, 30, 31, 32, 33, 34, 35, 36, 37, 38, 39, 40, 41, 42, 43, 44, 45, 46, 47, 48, 49, 50, 51, 52, 53, 54, 55, 56, 57, 58, 59, 60, 61, 62, 63, 64, 65, 66, 67, 68, 69, 70, 71, 72, 73, 74, 75, 76, 77, 78, 79, 80, 81, 82, 83, 84, 85, 86, 87, 88, 89, 90, 91, 92, 93, 94, 95, 96, 97, 98, 99, 100, 101, 102, 103, 104, 105, 106, 107, 108, 109, 110, 111, 112, 113, 114, 115, 116, 117, 118, 119, 120, 121, 122],
      "AcquisitionTime": ["204316.290000", "204318.790000", "204321.290000", "204323.790000", "204326.290000", "204328.790000", "204331.290000", "204333.790000", "204336.290000", "204338.790000", "204341.290000", "204343.790000", "204346.290000", "204348.790000", "204351.290000", "204353.790000", "204356.290000", "204358.790000", "204401.290000", "204403.790000", "204406.290000", "204408.790000", "204411.290000", "204413.790000", "204416.290000", "204418.790000", "204421.290000", "204423.790000", "204426.290000", "204428.790000", "204431.290000", "204433.790000", "204436.290000", "204438.790000", "204441.290000", "204443.790000", "204446.290000", "204448.790000", "204451.290000", "204453.790000", "204456.290000", "204458.790000", "204501.290000", "204503.790000", "204506.290000", "204508.790000", "204511.290000", "204513.790000", "204516.290000", "204518.790000", "204521.290000", "204523.790000", "204526.290000", "204528.790000", "204531.290000", "204533.790000", "204536.290000", "204538.790000", "204541.290000", "204543.790000", "204546.290000", "204548.790000", "204551.290000", "204553.790000", "204556.290000", "204558.790000", "204601.290000", "204603.790000", "204606.290000", "204608.790000", "204611.290000", "204613.790000", "204616.290000", "204618.790000", "204621.290000", "204623.790000", "204626.290000", "204628.790000", "204631.290000", "204633.790000", "204636.290000", "204638.790000", "204641.290000", "204643.790000", "204646.290000", "204648.790000", "204651.290000", "204653.790000", "204656.290000", "204658.790000", "204701.290000", "204703.790000", "204706.290000", "204708.790000", "204711.290000", "204713.790000", "204716.290000", "204718.790000", "204721.290000", "204723.790000", "204726.290000", "204728.790000", "204731.290000", "204733.790000", "204736.290000", "204738.790000", "204741.290000", "204743.790000", "204746.290000", "204748.790000", "204751.290000", "204753.790000", "204756.290000", "204758.790000", "204801.290000", "204803.790000", "204806.290000", "204808.790000", "204811.290000", "204813.790000", "204816.290000", "204818.790000"],
      "ContentTime": ["204412.983000", "204412.985000", "204412.988000", "204412.991000", "204412.994000", "204412.996000", "204413.000000", "204413.003000", "204413.005000", "204413.008000", "204413.011000", "204413.014000", "204413.016000", "204413.023000", "204413.025000", "204413.028000", "204413.031000", "204413.033000", "204413.036000", "204413.039000", "204413.041000", "204413.044000", "204512.980000", "204512.983000", "204512.986000", "204512.998000", "204513.002000", "204513.004000", "204513.007000", "204513.010000", "204513.012000", "204513.015000", "204513.018000", "204513.021000", "204513.023000", "204513.026000", "204513.029000", "204513.031000", "204513.034000", "204513.037000", "204513.040000", "204513.050000", "204513.053000", "204513.056000", "204513.058000", "204513.061000", "204612.985000", "204612.988000", "204612.990000", "204612.993000", "204612.996000", "204612.998000", "204613.002000", "204613.005000", "204613.008000", "204613.010000", "204613.013000", "204613.016000", "204613.018000", "204613.021000", "204613.024000", "204613.027000", "204613.029000", "204613.032000", "204613.034000", "204613.037000", "204613.040000", "204613.043000", "204613.045000", "204613.048000", "204712.984000", "204712.987000", "204712.990000", "204712.997000", "204713.001000", "204713.004000", "204713.006000", "204713.009000", "204713.012000", "204713.015000", "204713.017000", "204713.020000", "204713.023000", "204713.026000", "204713.028000", "204713.031000", "204713.034000", "204713.036000", "204713.056000", "204713.066000", "204713.069000", "204713.072000", "204713.074000", "204713.077000", "204812.988000", "204812.991000", "204812.994000", "204813.003000", "204813.006000", "204813.009000", "204813.011000", "204813.014000", "204813.017000", "204813.019000", "204813.022000", "204813.025000", "204813.028000", "204813.030000", "204813.033000", "204813.036000", "204813.038000", "204813.041000", "204813.044000", "204813.047000", "204813.049000", "204813.052000", "204813.055000", "204813.058000", "204820.682000", "204820.686000", "204820.690000", "204820.693000"],
      "InstanceCreationTime": ["204412.983000", "204412.985000", "204412.988000", "204412.991000", "204412.994000", "204412.996000", "204413.000000", "204413.003000", "204413.005000", "204413.008000", "204413.011000", "204413.014000", "204413.016000", "204413.023000", "204413.025000", "204413.028000", "204413.031000", "204413.033000", "204413.036000", "204413.039000", "204413.041000", "204413.044000", "204512.980000", "204512.983000", "204512.986000", "204512.998000", "204513.002000", "204513.004000", "204513.007000", "204513.010000", "204513.012000", "204513.015000", "204513.018000", "204513.021000", "204513.023000", "204513.026000", "204513.029000", "204513.031000", "204513.034000", "204513.037000", "204513.040000", "204513.050000", "204513.053000", "204513.056000", "204513.058000", "204513.061000", "204612.985000", "204612.988000", "204612.990000", "204612.993000", "204612.996000", "204612.998000", "204613.002000", "204613.005000", "204613.008000", "204613.010000", "204613.013000", "204613.016000", "204613.018000", "204613.021000", "204613.024000", "204613.027000", "204613.029000", "204613.032000", "204613.034000", "204613.037000", "204613.040000", "204613.043000", "204613.045000", "204613.048000", "204712.984000", "204712.987000", "204712.990000", "204712.997000", "204713.001000", "204713.004000", "204713.006000", "204713.009000", "204713.012000", "204713.015000", "204713.017000", "204713.020000", "204713.023000", "204713.026000", "204713.028000", "204713.031000", "204713.034000", "204713.036000", "204713.056000", "204713.066000", "204713.069000", "204713.072000", "204713.074000", "204713.077000", "204812.988000", "204812.991000", "204812.994000", "204813.003000", "204813.006000", "204813.009000", "204813.011000", "204813.014000", "204813.017000", "204813.019000", "204813.022000", "204813.025000", "204813.028000", "204813.030000", "204813.033000", "204813.036000", "204813.038000", "204813.041000", "204813.044000", "204813.047000", "204813.049000", "204813.052000", "204813.055000", "204813.058000", "204820.682000", "204820.686000", "204820.690000", "204820.693000"],
      "InstanceNumber": [1, 2, 3, 4, 5, 6, 7, 8, 9, 10, 11, 12, 13, 14, 15, 16, 17, 18, 19, 20, 21, 22, 23, 24, 25, 26, 27, 28, 29, 30, 31, 32, 33, 34, 35, 36, 37, 38, 39, 40, 41, 42, 43, 44, 45, 46, 47, 48, 49, 50, 51, 52, 53, 54, 55, 56, 57, 58, 59, 60, 61, 62, 63, 64, 65, 66, 67, 68, 69, 70, 71, 72, 73, 74, 75, 76, 77, 78, 79, 80, 81, 82, 83, 84, 85, 86, 87, 88, 89, 90, 91, 92, 93, 94, 95, 96, 97, 98, 99, 100, 101, 102, 103, 104, 105, 106, 107, 108, 109, 110, 111, 112, 113, 114, 115, 116, 117, 118, 119, 120, 121, 122],
      "LargestImagePixelValue": [1800, 2435, 1814, 2469, 2481, 2168, 1854, 1856, 1874, 1837, 1798, 1756, 1918, 1848, 2252, 2221, 2173, 1930, 2476, 2328, 1895, 1929, 2002, 1857, 2279, 2024, 2449, 1797, 1808, 1752, 1879, 2347, 1849, 1850, 1845, 1849, 2642, 2415, 2140, 2091, 1866, 1801, 1814, 1875, 1886, 1993, 2367, 2328, 1850, 1809, 1984, 2129, 1866, 1889, 1870, 1809, 1857, 1731, 1889, 2061, 1889, 1848, 2215, 2466, 2678, 2689, 2561, 2359, 2645, 2122, 2362, 1867, 1868, 1851, 1886, 1830, 1892, 2157, 1859, 2361, 2319, 1978, 1878, 1947, 1863, 1962, 1851, 1843, 1811, 2218, 1926, 1794, 1983, 2155, 2074, 1845, 1758, 1965, 1870, 1835, 1870, 1878, 1862, 1860, 2596, 2475, 2321, 1889, 1867, 1881, 2615, 1940, 1823, 2275, 1951, 1865, 2137, 2594, 2320, 2596, 2250, 1982],
      "WindowCenter": [653.0, 653.0, 650.0, 652.0, 652.0, 650.0, 649.0, 650.0, 650.0, 651.0, 651.0, 652.0, 653.0, 653.0, 654.0, 653.0, 653.0, 652.0, 653.0, 652.0, 650.0, 651.0, 651.0, 650.0, 651.0, 650.0, 652.0, 649.0, 651.0, 650.0, 651.0, 652.0, 651.0, 651.0, 652.0, 652.0, 654.0, 653.0, 652.0, 652.0, 651.0, 651.0, 652.0, 652.0, 652.0, 652.0, 653.0, 650.0, 650.0, 650.0, 651.0, 651.0, 650.0, 650.0, 651.0, 651.0, 652.0, 652.0, 653.0, 654.0, 654.0, 653.0, 654.0, 654.0, 654.0, 654.0, 651.0, 650.0, 650.0, 648.0, 649.0, 649.0, 650.0, 651.0, 652.0, 653.0, 653.0, 653.0, 653.0, 655.0, 652.0, 650.0, 650.0, 648.0, 649.0, 649.0, 649.0, 652.0, 652.0, 653.0, 651.0, 651.0, 653.0, 653.0, 649.0, 649.0, 650.0, 652.0, 651.0, 652.0, 653.0, 653.0, 652.0, 652.0, 655.0, 654.0, 653.0, 652.0, 652.0, 653.0, 655.0, 652.0, 652.0, 653.0, 649.0, 651.0, 653.0, 653.0, 650.0, 650.0, 649.0, 648.0],
      "WindowWidth": [1381.0, 1378.0, 1374.0, 1377.0, 1376.0, 1373.0, 1371.0, 1372.0, 1374.0, 1375.0, 1376.0, 1377.0, 1379.0, 1379.0, 1381.0, 1380.0, 1378.0, 1376.0, 1378.0, 1377.0, 1374.0, 1374.0, 1375.0, 1372.0, 1375.0, 1373.0, 1376.0, 1371.0, 1374.0, 1374.0, 1375.0, 1377.0, 1374.0, 1376.0, 1378.0, 1377.0, 1381.0, 1379.0, 1376.0, 1376.0, 1374.0, 1376.0, 1378.0, 1378.0, 1376.0, 1376.0, 1378.0, 1373.0, 1372.0, 1372.0, 1374.0, 1375.0, 1373.0, 1374.0, 1374.0, 1375.0, 1377.0, 1378.0, 1380.0, 1382.0, 1381.0, 1380.0, 1381.0, 1381.0, 1382.0, 1380.0, 1375.0, 1373.0, 1372.0, 1369.0, 1370.0, 1370.0, 1372.0, 1375.0, 1377.0, 1379.0, 1379.0, 1379.0, 1380.0, 1382.0, 1377.0, 1372.0, 1373.0, 1367.0, 1370.0, 1371.0, 1372.0, 1377.0, 1377.0, 1380.0, 1374.0, 1374.0, 1378.0, 1379.0, 1371.0, 1371.0, 1373.0, 1377.0, 1375.0, 1377.0, 1379.0, 1378.0, 1377.0, 1376.0, 1382.0, 1380.0, 1377.0, 1376.0, 1378.0, 1380.0, 1382.0, 1376.0, 1378.0, 1379.0, 1369.0, 1376.0, 1378.0, 1378.0, 1373.0, 1372.0, 1369.0, 1367.0]
    },
    "slices": {}
  }
}