{
  "AcquisitionMatrixPE": 72,
  "AcquisitionNumber": 1,
  "AcquisitionTime": "20:43:16.290000",
  "BandwidthPerPixelPhaseEncode": 24.366,
  "BaseResolution": 72,
  "BodyPartExamined": "BRAIN",
  "CoilCombinationMethod": "Sum of Squares",
  "ConsistencyInfo": "N4_VE11C_LATEST_20160120",
  "ConversionSoftware": "dcm2niix",
  "ConversionSoftwareVersion": "v1.0.20220720",
  "DerivedVendorReportedEchoSpacing": 0.000570011,
  "DeviceSerialNumber": "45219",
  "DwellTime": 3.5e-06,
  "EchoTime": 0.03,
  "EchoTrainLength": 72,
  "EffectiveEchoSpacing": 0.000570011,
  "FlipAngle": 80,
  "HeudiconvVersion": "1.1.6",
  "ImageOrientationPatientDICOM": [0.999695, 0.0192079, -0.0154959, -0.0174498, 0.994154, 0.106552],
  "ImageOrientationText": "Tra>Cor(6.1)>Sag(-1.0)",
  "ImageType": [
    "ORIGINAL",
    "PRIMARY",
    "M",
    "ND",
    "NORM",
    "MOSAIC"
],
  "ImagingFrequency": 123.182,
  "InPlanePhaseEncodingDirectionDICOM": "COL",
  "InstitutionAddress": "First Avenue 660,New York,NYC,US,10016",
  "InstitutionName": "NYU LANGONE CBI",
  "InstitutionalDepartmentName": "Department",
  "MRAcquisitionType": "2D",
  "MagneticFieldStrength": 3,
  "Manufacturer": "Siemens",
  "ManufacturersModelName": "Skyra",
  "MatrixCoilMode": "SENSE",
  "Modality": "MR",
  "NonlinearGradientCorrection": false,
  "PartialFourier": 1,
  "PatientPosition": "HFS",
  "PercentPhaseFOV": 100,
  "PercentSampling": 100,
  "PhaseEncodingDirection": "j-",
  "PhaseEncodingSteps": 72,
  "PhaseResolution": 1,
  "PixelBandwidth": 1985,
  "ProcedureStepDescription": "MRI BRAIN WITHOUT IV CONTRAST",
  "ProtocolName": "REST_2",
  "PulseSequenceDetails": "%SiemensSeq%\\ep2d_bold",
  "ReceiveCoilActiveElements": "HE1-4",
  "ReceiveCoilName": "HeadNeck_20",
  "ReconMatrixPE": 72,
  "RepetitionTime": 2.5,
  "SAR": 0.148751,
  "ScanOptions": "FS",
  "ScanningSequence": "EP",
  "SequenceName": "*epfid2d1_72",
  "SequenceVariant": "SK",
  "SeriesDescription": "REST_2",
  "SeriesNumber": 8,
  "ShimSetting": [-885, -7069, 5122, 472, -194, 8, 327, -195],
  "SliceThickness": 3,
  "SliceTiming": [1.24, 0, 1.305, 0.065, 1.37, 0.13, 1.435, 0.195, 1.5, 0.26, 1.565, 0.325, 1.63, 0.39, 1.695, 0.4575, 1.7625, 0.5225, 1.8275, 0.5875, 1.8925, 0.6525, 1.9575, 0.7175, 2.0225, 0.7825, 2.0875, 0.8475, 2.1525, 0.9125, 2.2175, 0.9775, 2.2825, 1.0425, 2.35, 1.11, 2.415, 1.175],
  "SoftwareVersions": "syngo MR E11",
  "SpacingBetweenSlices": 3,
  "StationName": "MRC45219",
  "TaskName": "rest",
  "TotalReadoutTime": 0.0404708,
  "TxRefAmp": 431.736,
  "dcmmeta_affine": [
    [-2.999086380004883, -0.05234934389591217, -0.05235594883561134, 109.0136489868164],
    [-0.05762362852692604, 2.982462167739868, 0.3187468349933624, -106.78932189941406],
    [-0.04648781195282936, -0.3196553885936737, 2.9825592041015625, -11.690547943115234],
    [0.0, 0.0, 0.0, 1.0]
],
  "dcmmeta_reorient_transform": [
    [0.0, -1.0, 0.0, 71.0],
    [1.0, 0.0, 0.0, 0.0],
    [0.0, 0.0, 1.0, 0.0],
    [0.0, 0.0, 0.0, 1.0]
],
  "dcmmeta_shape": [72, 72, 38, 122],
  "dcmmeta_slice_dim": 2,
  "dcmmeta_version": 0.6,
  "global": {
    "const": {
      "AcquisitionMatrix": [72, 0, 0, 72],
      "AngioFlag": "N",
      "BitsAllocated": 16,
      "BitsStored": 12,
      "BodyPartExamined": "BRAIN",
      "Columns": 504,
      "CountryOfResidence": "United States of America [1]",
      "EchoNumbers": 1,
      "EchoTime": 30.0,
      "EchoTrainLength": 72,
      "FlipAngle": 80.0,
      "HighBit": 11,
      "ImageOrientationPatient": [0.99969542032785, 0.01920787565691, -0.0154959377988, -0.0174497816644, 0.9941540220715, 0.10655179735196],
      "ImagePositionPatient": [-741.79201961488, -761.62399696921, -93.39027755169],
      "ImageType": [
        "ORIGINAL",
        "PRIMARY",
        "M",
        "ND",
        "NORM",
        "MOSAIC"
],
      "ImagedNucleus": "1H",
      "ImagingFrequency": 123.18191,
      "InPlanePhaseEncodingDirection": "COL",
      "MRAcquisitionType": "2D",
      "MagneticFieldStrength": 3.0,
      "Manufacturer": "SIEMENS",
      "ManufacturerModelName": "Skyra",
      "Modality": "MR",
      "NumberOfAverages": 1.0,
      "NumberOfPhaseEncodingSteps": 72,
      "PercentPhaseFieldOfView": 100.0,
      "PercentSampling": 100.0,
      "PerformedProcedureStepStartTime": "202745.903000",
      "PhotometricInterpretation": "MONOCHROME2",
      "PixelBandwidth": 1985.0,
      "PixelRepresentation": 0,
      "PixelSpacing": [3.0, 3.0],
      "PregnancyStatus": 4,
      "ProcedureCodeSequence": [
        {
          "CodeMeaning": "MRI BRAIN WITHOUT IV CONTRAST",
          "CodeValue": "IMG269",
          "CodingSchemeDesignator": "L"
        }
],
      "ProtocolName": "REST_2",
      "RepetitionTime": 2500.0,
      "RequestAttributesSequence": [
        {
          "ScheduledProcedureStepDescription": "MRI BRAIN WITHOUT IV CONTRAST",
          "ScheduledProcedureStepID": "E9621043",
          "ScheduledProtocolCodeSequence": [
            {
              "CodeMeaning": "MRI BRAIN WITHOUT IV CONTRAST",
              "CodeValue": "651061",
              "CodingSchemeDesignator": "L"
            }
]
        }
],
      "RequestedProcedureCodeSequence": [
        {
          "CodeMeaning": "MRI BRAIN WITHOUT IV CONTRAST",
          "CodeValue": "IMG269",
          "CodingSchemeDesignator": "L"
        }
],
      "Rows": 504,
      "SAR": 0.14875077949289,
      "SamplesPerPixel": 1,
      "ScanOptions": "FS",
      "ScanningSequence": "EP",
      "SequenceName": "*epfid2d1_72",
      "SequenceVariant": "SK",
      "SeriesDescription": "REST_2",
      "SeriesNumber": 8,
      "SeriesTime": "204412.884000",
      "SliceLocation": -24.871340146521,
      "SliceThickness": 3.0,
      "SmallestImagePixelValue": 0,
      "SmokingStatus": "UNKNOWN",
      "SoftwareVersions": "syngo MR E11",
      "SpacingBetweenSlices": 3.0000000148504,
      "SpecificCharacterSet": "ISO_IR 100",
      "StudyTime": "202745.762000",
      "TransmitCoilName": "Body",
      "VariableFlipAngleFlag": "N",
      "WindowCenterWidthExplanation": "Algo1",
      "dBdt": 0.0},
    "slices": {}
  },
  "time": {
    "samples": {
      "AcquisitionNumber": [1, 2, 3, 4, 5, 6, 7, 8, 9, 10, 11, 12, 13, 14, 15, 16, 17, 18, 19, 20, 21, 22, 23, 24, 25, 26, 27, 28, 29, 30, 31, 32, 33, 34, 35, 36, 37, 38, 39, 40, 41, 42, 43, 44, 45, 46, 47, 48, 49, 50, 51, 52, 53, 54, 55, 56, 57, 58, 59, 60, 61, 62, 63, 64, 65, 66, 67, 68, 69, 70, 71, 72, 73, 74, 75, 76, 77, 78, 79, 80, 81, 82, 83, 84, 85, 86, 87, 88, 89, 90, 91, 92, 93, 94, 95, 96, 97, 98, 99, 100, 101, 102, 103, 104, 105, 106, 107, 108, 109, 110, 111, 112, 113, 114, 115, 116, 117, 118, 119, 120, 121, 122],
      "AcquisitionTime": ["204316.290000", "204318.790000", "204321.290000", "204323.790000", "204326.290000", "204328.790000", "204331.290000", "204333.790000", "204336.290000", "204338.790000", "204341.290000", "204343.790000", "204346.290000", "204348.790000", "204351.290000", "204353.790000", "204356.290000", "204358.790000", "204401.290000", "204403.790000", "204406.290000", "204408.790000", "204411.290000", "204413.790000", "204416.290000", "204418.790000", "204421.290000", "204423.790000", "204426.290000", "204428.790000", "204431.290000", "204433.790000", "204436.290000", "204438.790000", "204441.290000", "204443.790000", "204446.290000", "204448.790000", "204451.290000", "204453.790000", "204456.290000", "204458.790000", "204501.290000", "204503.790000", "204506.290000", "204508.790000", "204511.290000", "204513.790000", "204516.290000", "204518.790000", "204521.290000", "204523.790000", "204526.290000", "204528.790000", "204531.290000", "204533.790000", "204536.290000", "204538.790000", "204541.290000", "204543.790000", "204546.290000", "204548.790000", "204551.290000", "204553.790000", "204556.290000", "204558.790000", "204601.290000", "204603.790000", "204606.290000", "204608.790000", "204611.290000", "204613.790000", "204616.290000", "204618.790000", "204621.290000", "204623.790000", "204626.290000", "204628.790000", "204631.290000", "204633.790000", "204636.290000", "204638.790000", "204641.290000", "204643.790000", "204646.290000", "204648.790000", "204651.290000", "204653.790000", "204656.290000", "204658.790000", "204701.290000", "204703.790000", "204706.290000", "204708.790000", "204711.290000", "204713.790000", "204716.290000", "204718.790000", "204721.290000", "204723.790000", "204726.290000", "204728.790000", "204731.290000", "204733.790000", "204736.290000", "204738.790000", "204741.290000", "204743.790000", "204746.290000", "204748.790000", "204751.290000", "204753.790000", "204756.290000", "204758.790000", "204801.290000", "204803.790000", "204806.290000", "204808.790000", "204811.290000", "204813.790000", "204816.290000", "204818.790000"],
      "ContentTime": ["204412.888000", "204412.892000", "204412.894000", "204412.897000", "204412.900000", "204412.902000", "204412.905000", "204412.908000", "204412.910000", "204412.921000", "204412.924000", "204412.926000", "204412.929000", "204412.932000", "204412.935000", "204412.938000", "204412.940000", "204412.943000", "204412.946000", "204412.949000", "204412.951000", "204412.954000", "204512.882000", "204512.886000", "204512.889000", "204512.892000", "204512.894000", "204512.897000", "204512.900000", "204512.902000", "204512.905000", "204512.908000", "204512.912000", "204512.915000", "204512.918000", "204512.920000", "204512.923000", "204512.926000", "204512.928000", "204512.931000", "204512.933000", "204512.936000", "204512.939000", "204512.942000", "204512.945000", "204512.947000", "204612.881000", "204612.885000", "204612.888000", "204612.891000", "204612.893000", "204612.896000", "204612.899000", "204612.901000", "204612.904000", "204612.906000", "204612.909000", "204612.912000", "204612.914000", "204612.917000", "204612.919000", "204612.922000", "204612.925000", "204612.927000", "204612.930000", "204612.932000", "204612.935000", "204612.938000", "204612.941000", "204612.943000", "204712.883000", "204712.887000", "204712.889000", "204712.892000", "204712.894000", "204712.897000", "204712.900000", "204712.903000", "204712.905000", "204712.908000", "204712.910000", "204712.913000", "204712.916000", "204712.919000", "204712.923000", "204712.926000", "204712.928000", "204712.931000", "204712.934000", "204712.936000", "204712.939000", "204712.942000", "204712.944000", "204712.947000", "204812.882000", "204812.885000", "204812.888000", "204812.891000", "204812.893000", "204812.896000", "204812.899000", "204812.901000", "204812.904000", "204812.907000", "204812.909000", "204812.912000", "204812.915000", "204812.918000", "204812.921000", "204812.923000", "204812.926000", "204812.929000", "204812.931000", "204812.934000", "204812.937000", "204812.939000", "204812.942000", "204812.945000", "204820.646000", "204820.650000", "204820.652000", "204820.655000"],
      "InstanceCreationTime": ["204412.888000", "204412.892000", "204412.894000", "204412.897000", "204412.900000", "204412.902000", "204412.905000", "204412.908000", "204412.910000", "204412.921000", "204412.924000", "204412.926000", "204412.929000", "204412.932000", "204412.935000", "204412.938000", "204412.940000", "204412.943000", "204412.946000", "204412.949000", "204412.951000", "204412.954000", "204512.882000", "204512.886000", "204512.889000", "204512.892000", "204512.894000", "204512.897000", "204512.900000", "204512.902000", "204512.905000", "204512.908000", "204512.912000", "204512.915000", "204512.918000", "204512.920000", "204512.923000", "204512.926000", "204512.928000", "204512.931000", "204512.933000", "204512.936000", "204512.939000", "204512.942000", "204512.945000", "204512.947000", "204612.881000", "204612.885000", "204612.888000", "204612.891000", "204612.893000", "204612.896000", "204612.899000", "204612.901000", "204612.904000", "204612.906000", "204612.909000", "204612.912000", "204612.914000", "204612.917000", "204612.919000", "204612.922000", "204612.925000", "204612.927000", "204612.930000", "204612.932000", "204612.935000", "204612.938000", "204612.941000", "204612.943000", "204712.883000", "204712.887000", "204712.889000", "204712.892000", "204712.894000", "204712.897000", "204712.900000", "204712.903000", "204712.905000", "204712.908000", "204712.910000", "204712.913000", "204712.916000", "204712.919000", "204712.923000", "204712.926000", "204712.928000", "204712.931000", "204712.934000", "204712.936000", "204712.939000", "204712.942000", "204712.944000", "204712.947000", "204812.882000", "204812.885000", "204812.888000", "204812.891000", "204812.893000", "204812.896000", "204812.899000", "204812.901000", "204812.904000", "204812.907000", "204812.909000", "204812.912000", "204812.915000", "204812.918000", "204812.921000", "204812.923000", "204812.926000", "204812.929000", "204812.931000", "204812.934000", "204812.937000", "204812.939000", "204812.942000", "204812.945000", "204820.646000", "204820.650000", "204820.652000", "204820.655000"],
      "InstanceNumber": [1, 2, 3, 4, 5, 6, 7, 8, 9, 10, 11, 12, 13, 14, 15, 16, 17, 18, 19, 20, 21, 22, 23, 24, 25, 26, 27, 28, 29, 30, 31, 32, 33, 34, 35, 36, 37, 38, 39, 40, 41, 42, 43, 44, 45, 46, 47, 48, 49, 50, 51, 52, 53, 54, 55, 56, 57, 58, 59, 60, 61, 62, 63, 64, 65, 66, 67, 68, 69, 70, 71, 72, 73, 74, 75, 76, 77, 78, 79, 80, 81, 82, 83, 84, 85, 86, 87, 88, 89, 90, 91, 92, 93, 94, 95, 96, 97, 98, 99, 100, 101, 102, 103, 104, 105, 106, 107, 108, 109, 110, 111, 112, 113, 114, 115, 116, 117, 118, 119, 120, 121, 122],
      "LargestImagePixelValue": [1800, 2419, 1791, 2438, 2435, 2121, 1820, 1815, 1810, 1809, 1785, 1726, 1867, 1809, 2140, 2113, 2012, 1827, 2355, 2180, 1797, 1860, 1882, 1802, 2125, 1848, 2419, 1773, 1784, 1729, 1828, 2235, 1788, 1792, 1801, 1795, 2517, 2247, 1962, 1985, 1828, 1782, 1775, 1804, 1806, 1953, 2226, 2161, 1791, 1736, 1880, 1910, 1817, 1771, 1818, 1730, 1789, 1723, 1825, 1921, 1841, 1770, 2035, 2233, 2444, 2472, 2387, 2233, 2382, 1984, 2177, 1783, 1796, 1812, 1786, 1725, 1779, 1968, 1790, 2243, 2192, 1845, 1803, 1792, 1822, 1916, 1761, 1783, 1795, 2076, 1866, 1760, 1834, 2026, 2003, 1821, 1732, 1836, 1771, 1756, 1816, 1801, 1742, 1761, 2403, 2249, 2161, 1816, 1770, 1827, 2571, 1778, 1754, 2142, 1918, 1805, 2100, 2410, 2214, 2431, 2062, 1854],
      "WindowCenter": [653.0, 653.0, 650.0, 652.0, 651.0, 650.0, 649.0, 650.0, 650.0, 650.0, 651.0, 651.0, 652.0, 652.0, 653.0, 653.0, 652.0, 651.0, 652.0, 651.0, 650.0, 650.0, 650.0, 649.0, 650.0, 649.0, 652.0, 649.0, 650.0, 650.0, 650.0, 652.0, 650.0, 651.0, 652.0, 652.0, 653.0, 652.0, 651.0, 650.0, 650.0, 651.0, 652.0, 652.0, 651.0, 651.0, 652.0, 650.0, 649.0, 649.0, 650.0, 650.0, 650.0, 649.0, 650.0, 650.0, 652.0, 652.0, 653.0, 653.0, 653.0, 652.0, 653.0, 653.0, 653.0, 653.0, 650.0, 649.0, 649.0, 647.0, 648.0, 648.0, 649.0, 650.0, 651.0, 652.0, 652.0, 652.0, 653.0, 653.0, 652.0, 649.0, 649.0, 646.0, 648.0, 649.0, 648.0, 651.0, 652.0, 652.0, 650.0, 650.0, 652.0, 652.0, 648.0, 649.0, 650.0, 651.0, 651.0, 651.0, 652.0, 652.0, 651.0, 651.0, 653.0, 652.0, 651.0, 651.0, 652.0, 653.0, 655.0, 650.0, 652.0, 652.0, 648.0, 651.0, 652.0, 652.0, 649.0, 649.0, 647.0, 647.0],
      "WindowWidth": [1381.0, 1378.0, 1373.0, 1377.0, 1375.0, 1373.0, 1371.0, 1372.0, 1374.0, 1374.0, 1376.0, 1377.0, 1379.0, 1378.0, 1380.0, 1379.0, 1377.0, 1375.0, 1378.0, 1375.0, 1373.0, 1374.0, 1373.0, 1372.0, 1373.0, 1371.0, 1376.0, 1371.0, 1374.0, 1373.0, 1374.0, 1376.0, 1373.0, 1376.0, 1377.0, 1377.0, 1379.0, 1377.0, 1374.0, 1374.0, 1374.0, 1376.0, 1377.0, 1377.0, 1376.0, 1375.0, 1377.0, 1372.0, 1370.0, 1371.0, 1373.0, 1373.0, 1372.0, 1372.0, 1374.0, 1374.0, 1376.0, 1378.0, 1379.0, 1381.0, 1380.0, 1379.0, 1380.0, 1379.0, 1380.0, 1379.0, 1373.0, 1371.0, 1370.0, 1367.0, 1368.0, 1369.0, 1372.0, 1374.0, 1376.0, 1377.0, 1377.0, 1376.0, 1379.0, 1380.0, 1376.0, 1371.0, 1372.0, 1365.0, 1369.0, 1370.0, 1370.0, 1376.0, 1377.0, 1378.0, 1373.0, 1374.0, 1377.0, 1378.0, 1369.0, 1371.0, 1373.0, 1375.0, 1374.0, 1375.0, 1378.0, 1377.0, 1375.0, 1375.0, 1380.0, 1378.0, 1376.0, 1375.0, 1377.0, 1379.0, 1382.0, 1374.0, 1378.0, 1377.0, 1369.0, 1375.0, 1378.0, 1376.0, 1372.0, 1370.0, 1367.0, 1366.0]
    },
    "slices": {}
  }
}