{
  "AcquisitionMatrixPE": 72,
  "AcquisitionNumber": 1,
  "AcquisitionTime": "16:30:42.810000",
  "BandwidthPerPixelPhaseEncode": 24.366,
  "BaseResolution": 72,
  "BodyPartExamined": "BRAIN",
  "CoilCombinationMethod": "Sum of Squares",
  "ConsistencyInfo": "N4_VE11C_LATEST_20160120",
  "ConversionSoftware": "dcm2niix",
  "ConversionSoftwareVersion": "v1.0.20220720",
  "DerivedVendorReportedEchoSpacing": 0.000570011,
  "DeviceSerialNumber": "45219",
  "DwellTime": 3.5e-06,
  "EchoTime": 0.03,
  "EchoTrainLength": 72,
  "EffectiveEchoSpacing": 0.000570011,
  "FlipAngle": 80,
  "HeudiconvVersion": "1.1.6",
  "ImageComments": "Reference volume for motion correction.",
  "ImageOrientationPatientDICOM": [0.998971, -0.00873354, 0.0445132, 6.03993e-08, 0.981291, 0.192529],
  "ImageOrientationText": "Tra>Cor(11.1)>Sag(2.6)",
  "ImageType": [
    "ORIGINAL",
    "PRIMARY",
    "M",
    "ND",
    "NORM",
    "MOCO",
    "MOSAIC"
],
  "ImagingFrequency": 123.182,
  "InPlanePhaseEncodingDirectionDICOM": "COL",
  "InstitutionAddress": "First Avenue 660,New York,NYC,US,10016",
  "InstitutionName": "NYU LANGONE CBI",
  "InstitutionalDepartmentName": "Department",
  "MRAcquisitionType": "2D",
  "MagneticFieldStrength": 3,
  "Manufacturer": "Siemens",
  "ManufacturersModelName": "Skyra",
  "MatrixCoilMode": "SENSE",
  "Modality": "MR",
  "NonlinearGradientCorrection": false,
  "PartialFourier": 1,
  "PatientPosition": "HFS",
  "PercentPhaseFOV": 100,
  "PercentSampling": 100,
  "PhaseEncodingDirection": "j-",
  "PhaseEncodingSteps": 72,
  "PhaseResolution": 1,
  "PixelBandwidth": 1985,
  "ProcedureStepDescription": "MRI BRAIN WITHOUT IV CONTRAST",
  "ProtocolName": "TASK_AB_MoCo",
  "PulseSequenceDetails": "%SiemensSeq%\\ep2d_bold",
  "ReceiveCoilActiveElements": "HE1-4",
  "ReceiveCoilName": "HeadNeck_20",
  "ReconMatrixPE": 72,
  "RepetitionTime": 2.5,
  "SAR": 0.147307,
  "ScanOptions": "FS",
  "ScanningSequence": "EP",
  "SequenceName": "*epfid2d1_72",
  "SequenceVariant": "SK",
  "SeriesDescription": "MoCoSeries",
  "SeriesNumber": 11,
  "ShimSetting": [-873, -7026, 5081, 330, -204, -171, 25, -130],
  "SliceThickness": 3,
  "SliceTiming": [1.24, 0, 1.305, 0.0675, 1.3725, 0.1325, 1.4375, 0.1975, 1.5025, 0.2625, 1.5675, 0.3275, 1.6325, 0.3925, 1.6975, 0.4575, 1.7625, 0.5225, 1.8275, 0.5875, 1.8925, 0.6525, 1.96, 0.72, 2.025, 0.785, 2.09, 0.85, 2.155, 0.915, 2.22, 0.98, 2.285, 1.045, 2.35, 1.11, 2.415, 1.175],
  "SoftwareVersions": "syngo MR E11",
  "SpacingBetweenSlices": 3,
  "StationName": "MRC45219",
  "TaskName": "ab",
  "TotalReadoutTime": 0.0404708,
  "TxRefAmp": 435.26,
  "dcmmeta_affine": [
    [-2.9969117641448975, 1.811978762589206e-07, 0.1360856592655182, 105.37189483642578],
    [0.02620062045753002, 2.943873882293701, 0.5769925117492676, -120.76266479492188],
    [0.13353964686393738, -0.5775871276855469, 2.940843343734741, -6.2603302001953125],
    [0.0, 0.0, 0.0, 1.0]
],
  "dcmmeta_reorient_transform": [
    [0.0, -1.0, 0.0, 71.0],
    [1.0, 0.0, 0.0, 0.0],
    [0.0, 0.0, 1.0, 0.0],
    [0.0, 0.0, 0.0, 1.0]
],
  "dcmmeta_shape": [72, 72, 38, 132],
  "dcmmeta_slice_dim": 2,
  "dcmmeta_version": 0.6,
  "global": {
    "const": {
      "AccessionNumber": "REMOVED",
      "AcquisitionMatrix": [72, 0, 0, 72],
      "AngioFlag": "N",
      "BitsAllocated": 16,
      "BitsStored": 12,
      "BodyPartExamined": "BRAIN",
      "Columns": 504,
      "CountryOfResidence": "REMOVED",
      "DeidentificationMethod": "anonymize.default",
      "DeidentificationMethodCodeSequence": [
        {
          "CodeMeaning": "Basic Anonymization",
          "CodeValue": "113199",
          "CodingSchemeDesignator": "2012CDX"
        }
],
      "EchoNumbers": 1,
      "EchoTime": 30.0,
      "EchoTrainLength": 72,
      "FlipAngle": 80.0,
      "HighBit": 11,
      "ImageOrientationPatient": [0.99897061963844, -0.0087335400967, 0.0445132157519, 6.0399291e-08, 0.98129127758832, 0.19252903295107],
      "ImagePositionPatient": [-752.70491211145, -718.46978838338, -200.87239132865],
      "ImageType": [
        "ORIGINAL",
        "PRIMARY",
        "M",
        "ND",
        "NORM",
        "MOCO",
        "MOSAIC"
],
      "ImagedNucleus": "1H",
      "ImagingFrequency": 123.181904,
      "InPlanePhaseEncodingDirection": "COL",
      "MRAcquisitionType": "2D",
      "MagneticFieldStrength": 3.0,
      "Manufacturer": "SIEMENS",
      "ManufacturerModelName": "Skyra",
      "Modality": "MR",
      "NumberOfAverages": 1.0,
      "NumberOfPhaseEncodingSteps": 72,
      "PercentPhaseFieldOfView": 100.0,
      "PercentSampling": 100.0,
      "PerformedProcedureStepStartTime": "160656.580000",
      "PhotometricInterpretation": "MONOCHROME2",
      "PixelBandwidth": 1985.0,
      "PixelRepresentation": 0,
      "PixelSpacing": [3.0, 3.0],
      "PregnancyStatus": 0,
      "ProcedureCodeSequence": [
        {
          "CodeMeaning": "MRI BRAIN WITHOUT IV CONTRAST",
          "CodeValue": "IMG269",
          "CodingSchemeDesignator": "L"
        }
],
      "ProtocolName": "TASK_AB",
      "RepetitionTime": 2500.0,
      "RequestAttributesSequence": [
        {
          "RequestedProcedureID": "331159177",
          "ScheduledProcedureStepDescription": "MRI BRAIN WITHOUT IV CONTRAST",
          "ScheduledProcedureStepID": "E10595114",
          "ScheduledProtocolCodeSequence": [
            {
              "CodeMeaning": "MRI BRAIN WITHOUT IV CONTRAST",
              "CodeValue": "651061",
              "CodingSchemeDesignator": "L"
            }
]
        }
],
      "RequestedProcedureCodeSequence": [
        {
          "CodeMeaning": "MRI BRAIN WITHOUT IV CONTRAST",
          "CodeValue": "IMG269",
          "CodingSchemeDesignator": "L"
        }
],
      "Rows": 504,
      "SAR": 0.1473072566072,
      "SamplesPerPixel": 1,
      "ScanOptions": "FS",
      "ScanningSequence": "EP",
      "SequenceName": "*epfid2d1_72",
      "SequenceVariant": "SK",
      "SeriesDescription": "MoCoSeries",
      "SeriesNumber": 11,
      "SeriesTime": "163144.445000",
      "SliceLocation": -24.58340103457,
      "SliceThickness": 3.0,
      "SmallestImagePixelValue": 0,
      "SmokingStatus": "REMOVED",
      "SoftwareVersions": "syngo MR E11",
      "SpacingBetweenSlices": 2.9999999014272,
      "SpecificCharacterSet": "ISO_IR 100",
      "StudyID": "REMOVED",
      "StudyTime": "160656.417000",
      "TransmitCoilName": "Body",
      "VariableFlipAngleFlag": "N",
      "WindowCenterWidthExplanation": "Algo1",
      "dBdt": 0.0},
    "slices": {}
  },
  "time": {
    "samples": {
      "AcquisitionNumber": [1, 2, 3, 4, 5, 6, 7, 8, 9, 10, 11, 12, 13, 14, 15, 16, 17, 18, 19, 20, 21, 22, 23, 24, 25, 26, 27, 28, 29, 30, 31, 32, 33, 34, 35, 36, 37, 38, 39, 40, 41, 42, 43, 44, 45, 46, 47, 48, 49, 50, 51, 52, 53, 54, 55, 56, 57, 58, 59, 60, 61, 62, 63, 64, 65, 66, 67, 68, 69, 70, 71, 72, 73, 74, 75, 76, 77, 78, 79, 80, 81, 82, 83, 84, 85, 86, 87, 88, 89, 90, 91, 92, 93, 94, 95, 96, 97, 98, 99, 100, 101, 102, 103, 104, 105, 106, 107, 108, 109, 110, 111, 112, 113, 114, 115, 116, 117, 118, 119, 120, 121, 122, 123, 124, 125, 126, 127, 128, 129, 130, 131, 132],
      "AcquisitionTime": ["163042.810000", "163045.310000", "163047.810000", "163050.310000", "163052.810000", "163055.310000", "163057.810000", "163100.310000", "163102.810000", "163105.310000", "163107.810000", "163110.310000", "163112.810000", "163115.310000", "163117.810000", "163120.310000", "163122.810000", "163125.310000", "163127.810000", "163130.310000", "163132.810000", "163135.310000", "163137.810000", "163140.310000", "163142.810000", "163145.310000", "163147.810000", "163150.310000", "163152.810000", "163155.310000", "163157.810000", "163200.310000", "163202.810000", "163205.310000", "163207.810000", "163210.310000", "163212.810000", "163215.310000", "163217.810000", "163220.310000", "163222.810000", "163225.310000", "163227.810000", "163230.310000", "163232.810000", "163235.310000", "163237.810000", "163240.310000", "163242.810000", "163245.310000", "163247.810000", "163250.310000", "163252.810000", "163255.310000", "163257.810000", "163300.310000", "163302.810000", "163305.310000", "163307.810000", "163310.310000", "163312.810000", "163315.310000", "163317.810000", "163320.310000", "163322.810000", "163325.310000", "163327.810000", "163330.310000", "163332.810000", "163335.310000", "163337.810000", "163340.310000", "163342.810000", "163345.310000", "163347.810000", "163350.310000", "163352.810000", "163355.310000", "163357.810000", "163400.310000", "163402.810000", "163405.310000", "163407.810000", "163410.310000", "163412.810000", "163415.310000", "163417.810000", "163420.310000", "163422.810000", "163425.310000", "163427.810000", "163430.310000", "163432.810000", "163435.310000", "163437.810000", "163440.310000", "163442.810000", "163445.310000", "163447.810000", "163450.310000", "163452.810000", "163455.310000", "163457.810000", "163500.310000", "163502.810000", "163505.310000", "163507.810000", "163510.310000", "163512.810000", "163515.310000", "163517.810000", "163520.310000", "163522.810000", "163525.310000", "163527.810000", "163530.310000", "163532.810000", "163535.310000", "163537.810000", "163540.310000", "163542.810000", "163545.310000", "163547.810000", "163550.310000", "163552.810000", "163555.310000", "163557.810000", "163600.310000", "163602.810000", "163605.310000", "163607.810000", "163610.310000"],
      "ContentTime": ["163144.447000", "163144.450000", "163144.452000", "163144.455000", "163144.458000", "163144.461000", "163144.464000", "163144.471000", "163144.474000", "163144.477000", "163144.479000", "163144.482000", "163144.485000", "163144.488000", "163144.491000", "163144.494000", "163144.497000", "163144.499000", "163144.502000", "163144.505000", "163144.508000", "163144.511000", "163144.513000", "163144.516000", "163244.438000", "163244.441000", "163244.443000", "163244.446000", "163244.449000", "163244.452000", "163244.454000", "163244.457000", "163244.460000", "163244.463000", "163244.466000", "163244.468000", "163244.471000", "163244.474000", "163244.477000", "163244.479000", "163244.482000", "163244.485000", "163244.488000", "163244.491000", "163244.494000", "163244.496000", "163244.499000", "163244.502000", "163344.431000", "163344.434000", "163344.437000", "163344.440000", "163344.443000", "163344.445000", "163344.448000", "163344.451000", "163344.454000", "163344.457000", "163344.459000", "163344.462000", "163344.465000", "163344.468000", "163344.470000", "163344.473000", "163344.476000", "163344.479000", "163344.481000", "163344.484000", "163344.487000", "163344.490000", "163344.493000", "163344.495000", "163444.430000", "163444.433000", "163444.436000", "163444.438000", "163444.441000", "163444.444000", "163444.447000", "163444.450000", "163444.452000", "163444.455000", "163444.458000", "163444.461000", "163444.464000", "163444.466000", "163444.469000", "163444.472000", "163444.475000", "163444.478000", "163444.480000", "163444.483000", "163444.486000", "163444.489000", "163444.491000", "163444.494000", "163544.443000", "163544.446000", "163544.449000", "163544.452000", "163544.455000", "163544.458000", "163544.461000", "163544.463000", "163544.466000", "163544.469000", "163544.472000", "163544.475000", "163544.478000", "163544.480000", "163544.483000", "163544.486000", "163544.489000", "163544.491000", "163544.494000", "163544.497000", "163544.500000", "163544.503000", "163544.506000", "163544.508000", "163612.236000", "163612.240000", "163612.252000", "163612.267000", "163612.270000", "163612.273000", "163612.276000", "163612.280000", "163612.283000", "163612.286000", "163612.289000", "163612.292000"],
      "InstanceCreationTime": ["163144.447000", "163144.450000", "163144.452000", "163144.455000", "163144.458000", "163144.461000", "163144.464000", "163144.471000", "163144.474000", "163144.477000", "163144.479000", "163144.482000", "163144.485000", "163144.488000", "163144.491000", "163144.494000", "163144.497000", "163144.499000", "163144.502000", "163144.505000", "163144.508000", "163144.511000", "163144.513000", "163144.516000", "163244.438000", "163244.441000", "163244.443000", "163244.446000", "163244.449000", "163244.452000", "163244.454000", "163244.457000", "163244.460000", "163244.463000", "163244.466000", "163244.468000", "163244.471000", "163244.474000", "163244.477000", "163244.479000", "163244.482000", "163244.485000", "163244.488000", "163244.491000", "163244.494000", "163244.496000", "163244.499000", "163244.502000", "163344.431000", "163344.434000", "163344.437000", "163344.440000", "163344.443000", "163344.445000", "163344.448000", "163344.451000", "163344.454000", "163344.457000", "163344.459000", "163344.462000", "163344.465000", "163344.468000", "163344.470000", "163344.473000", "163344.476000", "163344.479000", "163344.481000", "163344.484000", "163344.487000", "163344.490000", "163344.493000", "163344.495000", "163444.430000", "163444.433000", "163444.436000", "163444.438000", "163444.441000", "163444.444000", "163444.447000", "163444.450000", "163444.452000", "163444.455000", "163444.458000", "163444.461000", "163444.464000", "163444.466000", "163444.469000", "163444.472000", "163444.475000", "163444.478000", "163444.480000", "163444.483000", "163444.486000", "163444.489000", "163444.491000", "163444.494000", "163544.443000", "163544.446000", "163544.449000", "163544.452000", "163544.455000", "163544.458000", "163544.461000", "163544.463000", "163544.466000", "163544.469000", "163544.472000", "163544.475000", "163544.478000", "163544.480000", "163544.483000", "163544.486000", "163544.489000", "163544.491000", "163544.494000", "163544.497000", "163544.500000", "163544.503000", "163544.506000", "163544.508000", "163612.236000", "163612.240000", "163612.252000", "163612.267000", "163612.270000", "163612.273000", "163612.276000", "163612.280000", "163612.283000", "163612.286000", "163612.289000", "163612.292000"],
      "InstanceNumber": [1, 2, 3, 4, 5, 6, 7, 8, 9, 10, 11, 12, 13, 14, 15, 16, 17, 18, 19, 20, 21, 22, 23, 24, 25, 26, 27, 28, 29, 30, 31, 32, 33, 34, 35, 36, 37, 38, 39, 40, 41, 42, 43, 44, 45, 46, 47, 48, 49, 50, 51, 52, 53, 54, 55, 56, 57, 58, 59, 60, 61, 62, 63, 64, 65, 66, 67, 68, 69, 70, 71, 72, 73, 74, 75, 76, 77, 78, 79, 80, 81, 82, 83, 84, 85, 86, 87, 88, 89, 90, 91, 92, 93, 94, 95, 96, 97, 98, 99, 100, 101, 102, 103, 104, 105, 106, 107, 108, 109, 110, 111, 112, 113, 114, 115, 116, 117, 118, 119, 120, 121, 122, 123, 124, 125, 126, 127, 128, 129, 130, 131, 132],
      "LargestImagePixelValue": [1445, 1367, 1394, 1434, 1388, 1379, 1380, 1385, 1386, 1390, 1395, 1391, 1377, 1377, 1387, 1408, 1393, 1399, 1392, 1384, 1395, 1396, 1376, 1385, 1391, 1388, 1377, 1378, 1386, 1399, 1405, 1387, 1365, 1381, 1403, 1368, 1375, 1381, 1374, 1373, 1411, 1524, 1378, 1384, 1377, 1389, 1401, 1404, 1387, 1394, 1390, 1392, 1377, 1380, 1368, 1363, 1426, 1384, 1400, 1419, 1559, 1389, 1377, 1395, 1399, 1404, 1426, 1397, 1386, 1383, 1384, 1398, 1393, 1391, 1379, 1395, 1406, 1398, 1389, 1447, 1380, 1383, 1443, 1403, 1387, 1402, 1411, 1431, 1410, 1389, 1390, 1380, 1384, 1413, 1404, 1389, 1623, 1463, 1400, 1399, 1385, 1398, 1513, 1406, 1383, 1402, 1579, 1388, 1389, 1412, 1424, 1385, 1382, 1375, 1423, 1417, 1521, 1382, 1409, 1382, 1385, 1369, 1369, 1396, 1396, 1397, 1371, 1429, 1453, 1373, 1418, 1450],
      "WindowCenter": [588.0, 585.0, 584.0, 584.0, 583.0, 584.0, 584.0, 583.0, 584.0, 584.0, 584.0, 584.0, 584.0, 583.0, 583.0, 584.0, 584.0, 584.0, 584.0, 584.0, 583.0, 584.0, 583.0, 583.0, 583.0, 583.0, 584.0, 584.0, 584.0, 585.0, 585.0, 584.0, 584.0, 584.0, 583.0, 583.0, 583.0, 583.0, 585.0, 584.0, 583.0, 583.0, 582.0, 583.0, 584.0, 585.0, 585.0, 585.0, 585.0, 585.0, 586.0, 586.0, 585.0, 585.0, 584.0, 584.0, 584.0, 585.0, 585.0, 584.0, 584.0, 583.0, 583.0, 584.0, 586.0, 586.0, 586.0, 585.0, 585.0, 585.0, 584.0, 584.0, 584.0, 584.0, 584.0, 584.0, 584.0, 584.0, 584.0, 585.0, 584.0, 584.0, 584.0, 581.0, 581.0, 582.0, 584.0, 586.0, 586.0, 585.0, 585.0, 585.0, 585.0, 587.0, 588.0, 587.0, 587.0, 584.0, 583.0, 583.0, 584.0, 585.0, 585.0, 586.0, 586.0, 586.0, 587.0, 584.0, 584.0, 584.0, 584.0, 585.0, 585.0, 585.0, 586.0, 586.0, 586.0, 585.0, 584.0, 583.0, 583.0, 584.0, 584.0, 585.0, 585.0, 586.0, 586.0, 586.0, 586.0, 585.0, 583.0, 583.0],
      "WindowWidth": [1240.0, 1232.0, 1230.0, 1230.0, 1228.0, 1229.0, 1230.0, 1228.0, 1229.0, 1230.0, 1230.0, 1229.0, 1229.0, 1227.0, 1228.0, 1229.0, 1229.0, 1229.0, 1228.0, 1229.0, 1228.0, 1229.0, 1228.0, 1227.0, 1227.0, 1228.0, 1229.0, 1229.0, 1230.0, 1231.0, 1231.0, 1230.0, 1230.0, 1229.0, 1228.0, 1227.0, 1227.0, 1229.0, 1232.0, 1229.0, 1228.0, 1227.0, 1226.0, 1228.0, 1230.0, 1231.0, 1232.0, 1232.0, 1232.0, 1233.0, 1233.0, 1234.0, 1233.0, 1232.0, 1231.0, 1230.0, 1230.0, 1231.0, 1231.0, 1230.0, 1229.0, 1227.0, 1227.0, 1231.0, 1233.0, 1234.0, 1233.0, 1233.0, 1232.0, 1232.0, 1231.0, 1231.0, 1230.0, 1230.0, 1229.0, 1230.0, 1230.0, 1230.0, 1230.0, 1231.0, 1230.0, 1230.0, 1230.0, 1224.0, 1223.0, 1226.0, 1229.0, 1233.0, 1233.0, 1232.0, 1233.0, 1232.0, 1232.0, 1235.0, 1238.0, 1236.0, 1235.0, 1229.0, 1228.0, 1228.0, 1229.0, 1231.0, 1232.0, 1235.0, 1233.0, 1234.0, 1234.0, 1229.0, 1229.0, 1230.0, 1231.0, 1231.0, 1231.0, 1232.0, 1233.0, 1234.0, 1234.0, 1231.0, 1229.0, 1228.0, 1228.0, 1229.0, 1229.0, 1231.0, 1232.0, 1233.0, 1234.0, 1233.0, 1234.0, 1231.0, 1228.0, 1227.0]
    },
    "slices": {}
  }
}