{
  "AcquisitionMatrixPE": 72,
  "AcquisitionNumber": 1,
  "AcquisitionTime": "16:24:47.875000",
  "BandwidthPerPixelPhaseEncode": 24.366,
  "BaseResolution": 72,
  "BodyPartExamined": "BRAIN",
  "CoilCombinationMethod": "Sum of Squares",
  "ConsistencyInfo": "N4_VE11C_LATEST_20160120",
  "ConversionSoftware": "dcm2niix",
  "ConversionSoftwareVersion": "v1.0.20220720",
  "DerivedVendorReportedEchoSpacing": 0.000570011,
  "DeviceSerialNumber": "45219",
  "DwellTime": 3.5e-06,
  "EchoTime": 0.03,
  "EchoTrainLength": 72,
  "EffectiveEchoSpacing": 0.000570011,
  "FlipAngle": 80,
  "HeudiconvVersion": "1.1.6",
  "ImageOrientationPatientDICOM": [0.998971, -0.00873354, 0.0445132, 6.03993e-08, 0.981291, 0.192529],
  "ImageOrientationText": "Tra>Cor(11.1)>Sag(2.6)",
  "ImageType": [
    "ORIGINAL",
    "PRIMARY",
    "M",
    "ND",
    "NORM",
    "MOSAIC"
],
  "ImagingFrequency": 123.182,
  "InPlanePhaseEncodingDirectionDICOM": "COL",
  "InstitutionAddress": "First Avenue 660,New York,NYC,US,10016",
  "InstitutionName": "NYU LANGONE CBI",
  "InstitutionalDepartmentName": "Department",
  "MRAcquisitionType": "2D",
  "MagneticFieldStrength": 3,
  "Manufacturer": "Siemens",
  "ManufacturersModelName": "Skyra",
  "MatrixCoilMode": "SENSE",
  "Modality": "MR",
  "NonlinearGradientCorrection": false,
  "PartialFourier": 1,
  "PatientPosition": "HFS",
  "PercentPhaseFOV": 100,
  "PercentSampling": 100,
  "PhaseEncodingDirection": "j-",
  "PhaseEncodingSteps": 72,
  "PhaseResolution": 1,
  "PixelBandwidth": 1985,
  "ProcedureStepDescription": "MRI BRAIN WITHOUT IV CONTRAST",
  "ProtocolName": "REST_2",
  "PulseSequenceDetails": "%SiemensSeq%\\ep2d_bold",
  "ReceiveCoilActiveElements": "HE1-4",
  "ReceiveCoilName": "HeadNeck_20",
  "ReconMatrixPE": 72,
  "RepetitionTime": 2.5,
  "SAR": 0.147254,
  "ScanOptions": "FS",
  "ScanningSequence": "EP",
  "SequenceName": "*epfid2d1_72",
  "SequenceVariant": "SK",
  "SeriesDescription": "REST_2",
  "SeriesNumber": 8,
  "ShimSetting": [-873, -7026, 5081, 330, -204, -171, 25, -130],
  "SliceThickness": 3,
  "SliceTiming": [1.24, 0, 1.305, 0.065, 1.37, 0.13, 1.435, 0.195, 1.5, 0.26, 1.565, 0.325, 1.63, 0.39, 1.695, 0.455, 1.7625, 0.5225, 1.8275, 0.5875, 1.8925, 0.6525, 1.9575, 0.7175, 2.0225, 0.7825, 2.0875, 0.8475, 2.1525, 0.9125, 2.2175, 0.9775, 2.2825, 1.0425, 2.3475, 1.1075, 2.415, 1.175],
  "SoftwareVersions": "syngo MR E11",
  "SpacingBetweenSlices": 3,
  "StationName": "MRC45219",
  "TaskName": "rest",
  "TotalReadoutTime": 0.0404708,
  "TxRefAmp": 435.26,
  "dcmmeta_affine": [
    [-2.9969117641448975, 1.811978762589206e-07, 0.1360856592655182, 105.37189483642578],
    [0.02620062045753002, 2.943873882293701, 0.5769925117492676, -120.76266479492188],
    [0.13353964686393738, -0.5775871276855469, 2.940843343734741, -6.2603302001953125],
    [0.0, 0.0, 0.0, 1.0]
],
  "dcmmeta_reorient_transform": [
    [0.0, -1.0, 0.0, 71.0],
    [1.0, 0.0, 0.0, 0.0],
    [0.0, 0.0, 1.0, 0.0],
    [0.0, 0.0, 0.0, 1.0]
],
  "dcmmeta_shape": [72, 72, 38, 122],
  "dcmmeta_slice_dim": 2,
  "dcmmeta_version": 0.6,
  "global": {
    "const": {
      "AccessionNumber": "REMOVED",
      "AcquisitionMatrix": [72, 0, 0, 72],
      "AngioFlag": "N",
      "BitsAllocated": 16,
      "BitsStored": 12,
      "BodyPartExamined": "BRAIN",
      "Columns": 504,
      "CountryOfResidence": "REMOVED",
      "DeidentificationMethod": "anonymize.default",
      "DeidentificationMethodCodeSequence": [
        {
          "CodeMeaning": "Basic Anonymization",
          "CodeValue": "113199",
          "CodingSchemeDesignator": "2012CDX"
        }
],
      "EchoNumbers": 1,
      "EchoTime": 30.0,
      "EchoTrainLength": 72,
      "FlipAngle": 80.0,
      "HighBit": 11,
      "ImageOrientationPatient": [0.99897061963844, -0.0087335400967, 0.0445132157519, 6.0399291e-08, 0.98129127758832, 0.19252903295107],
      "ImagePositionPatient": [-752.70491211145, -718.46978838338, -200.87239132865],
      "ImageType": [
        "ORIGINAL",
        "PRIMARY",
        "M",
        "ND",
        "NORM",
        "MOSAIC"
],
      "ImagedNucleus": "1H",
      "ImagingFrequency": 123.181875,
      "InPlanePhaseEncodingDirection": "COL",
      "MRAcquisitionType": "2D",
      "MagneticFieldStrength": 3.0,
      "Manufacturer": "SIEMENS",
      "ManufacturerModelName": "Skyra",
      "Modality": "MR",
      "NumberOfAverages": 1.0,
      "NumberOfPhaseEncodingSteps": 72,
      "PercentPhaseFieldOfView": 100.0,
      "PercentSampling": 100.0,
      "PerformedProcedureStepStartTime": "160656.580000",
      "PhotometricInterpretation": "MONOCHROME2",
      "PixelBandwidth": 1985.0,
      "PixelRepresentation": 0,
      "PixelSpacing": [3.0, 3.0],
      "PregnancyStatus": 0,
      "ProcedureCodeSequence": [
        {
          "CodeMeaning": "MRI BRAIN WITHOUT IV CONTRAST",
          "CodeValue": "IMG269",
          "CodingSchemeDesignator": "L"
        }
],
      "ProtocolName": "REST_2",
      "RepetitionTime": 2500.0,
      "RequestAttributesSequence": [
        {
          "RequestedProcedureID": "331159177",
          "ScheduledProcedureStepDescription": "MRI BRAIN WITHOUT IV CONTRAST",
          "ScheduledProcedureStepID": "E10595114",
          "ScheduledProtocolCodeSequence": [
            {
              "CodeMeaning": "MRI BRAIN WITHOUT IV CONTRAST",
              "CodeValue": "651061",
              "CodingSchemeDesignator": "L"
            }
]
        }
],
      "RequestedProcedureCodeSequence": [
        {
          "CodeMeaning": "MRI BRAIN WITHOUT IV CONTRAST",
          "CodeValue": "IMG269",
          "CodingSchemeDesignator": "L"
        }
],
      "Rows": 504,
      "SAR": 0.14725431360469,
      "SamplesPerPixel": 1,
      "ScanOptions": "FS",
      "ScanningSequence": "EP",
      "SequenceName": "*epfid2d1_72",
      "SequenceVariant": "SK",
      "SeriesDescription": "REST_2",
      "SeriesNumber": 8,
      "SeriesTime": "162544.888000",
      "SliceLocation": -24.58340103457,
      "SliceThickness": 3.0,
      "SmallestImagePixelValue": 0,
      "SmokingStatus": "REMOVED",
      "SoftwareVersions": "syngo MR E11",
      "SpacingBetweenSlices": 2.9999999014272,
      "SpecificCharacterSet": "ISO_IR 100",
      "StudyID": "REMOVED",
      "StudyTime": "160656.417000",
      "TransmitCoilName": "Body",
      "VariableFlipAngleFlag": "N",
      "WindowCenterWidthExplanation": "Algo1",
      "dBdt": 0.0},
    "slices": {}
  },
  "time": {
    "samples": {
      "AcquisitionNumber": [1, 2, 3, 4, 5, 6, 7, 8, 9, 10, 11, 12, 13, 14, 15, 16, 17, 18, 19, 20, 21, 22, 23, 24, 25, 26, 27, 28, 29, 30, 31, 32, 33, 34, 35, 36, 37, 38, 39, 40, 41, 42, 43, 44, 45, 46, 47, 48, 49, 50, 51, 52, 53, 54, 55, 56, 57, 58, 59, 60, 61, 62, 63, 64, 65, 66, 67, 68, 69, 70, 71, 72, 73, 74, 75, 76, 77, 78, 79, 80, 81, 82, 83, 84, 85, 86, 87, 88, 89, 90, 91, 92, 93, 94, 95, 96, 97, 98, 99, 100, 101, 102, 103, 104, 105, 106, 107, 108, 109, 110, 111, 112, 113, 114, 115, 116, 117, 118, 119, 120, 121, 122],
      "AcquisitionTime": ["162447.875000", "162450.375000", "162452.875000", "162455.375000", "162457.875000", "162500.375000", "162502.875000", "162505.375000", "162507.875000", "162510.375000", "162512.875000", "162515.375000", "162517.875000", "162520.375000", "162522.875000", "162525.375000", "162527.875000", "162530.375000", "162532.875000", "162535.375000", "162537.875000", "162540.375000", "162542.875000", "162545.375000", "162547.875000", "162550.375000", "162552.875000", "162555.375000", "162557.875000", "162600.375000", "162602.875000", "162605.375000", "162607.875000", "162610.375000", "162612.875000", "162615.375000", "162617.875000", "162620.375000", "162622.875000", "162625.375000", "162627.875000", "162630.375000", "162632.875000", "162635.375000", "162637.875000", "162640.375000", "162642.875000", "162645.375000", "162647.875000", "162650.375000", "162652.875000", "162655.375000", "162657.875000", "162700.375000", "162702.875000", "162705.375000", "162707.875000", "162710.375000", "162712.875000", "162715.375000", "162717.875000", "162720.375000", "162722.875000", "162725.375000", "162727.875000", "162730.375000", "162732.875000", "162735.375000", "162737.875000", "162740.375000", "162742.875000", "162745.375000", "162747.875000", "162750.375000", "162752.875000", "162755.375000", "162757.875000", "162800.375000", "162802.875000", "162805.375000", "162807.875000", "162810.375000", "162812.875000", "162815.375000", "162817.875000", "162820.375000", "162822.875000", "162825.375000", "162827.875000", "162830.375000", "162832.875000", "162835.375000", "162837.875000", "162840.375000", "162842.875000", "162845.375000", "162847.875000", "162850.375000", "162852.875000", "162855.375000", "162857.875000", "162900.375000", "162902.875000", "162905.375000", "162907.875000", "162910.375000", "162912.875000", "162915.375000", "162917.875000", "162920.375000", "162922.875000", "162925.375000", "162927.875000", "162930.375000", "162932.875000", "162935.375000", "162937.875000", "162940.375000", "162942.875000", "162945.375000", "162947.875000", "162950.375000"],
      "ContentTime": ["162544.892000", "162544.895000", "162544.898000", "162544.910000", "162544.913000", "162544.915000", "162544.918000", "162544.921000", "162544.923000", "162544.926000", "162544.929000", "162544.932000", "162544.934000", "162544.937000", "162544.940000", "162544.943000", "162544.945000", "162544.948000", "162544.961000", "162544.963000", "162544.966000", "162544.969000", "162544.971000", "162644.887000", "162644.890000", "162644.892000", "162644.895000", "162644.898000", "162644.900000", "162644.903000", "162644.906000", "162644.909000", "162644.911000", "162644.914000", "162644.917000", "162644.919000", "162644.922000", "162644.925000", "162644.927000", "162644.930000", "162644.938000", "162644.941000", "162644.944000", "162644.947000", "162644.949000", "162644.952000", "162644.955000", "162704.887000", "162704.889000", "162704.892000", "162704.895000", "162704.898000", "162704.900000", "162704.903000", "162704.906000", "162804.887000", "162804.890000", "162804.892000", "162804.895000", "162804.898000", "162804.900000", "162804.903000", "162804.906000", "162804.909000", "162804.912000", "162804.914000", "162804.917000", "162804.920000", "162804.923000", "162804.925000", "162804.928000", "162804.931000", "162804.933000", "162804.936000", "162804.939000", "162804.941000", "162804.944000", "162804.947000", "162804.949000", "162904.887000", "162904.890000", "162904.892000", "162904.895000", "162904.898000", "162904.901000", "162904.903000", "162904.906000", "162904.909000", "162904.911000", "162904.914000", "162904.917000", "162904.920000", "162904.923000", "162904.925000", "162904.928000", "162904.931000", "162904.933000", "162904.936000", "162904.939000", "162904.941000", "162904.944000", "162904.947000", "162904.949000", "162952.333000", "162952.336000", "162952.339000", "162952.341000", "162952.344000", "162952.347000", "162952.350000", "162952.353000", "162952.355000", "162952.358000", "162952.361000", "162952.364000", "162952.377000", "162952.380000", "162952.383000", "162952.386000", "162952.390000", "162952.393000", "162952.396000"],
      "InstanceCreationTime": ["162544.892000", "162544.895000", "162544.898000", "162544.910000", "162544.913000", "162544.915000", "162544.918000", "162544.921000", "162544.923000", "162544.926000", "162544.929000", "162544.932000", "162544.934000", "162544.937000", "162544.940000", "162544.943000", "162544.945000", "162544.948000", "162544.961000", "162544.963000", "162544.966000", "162544.969000", "162544.971000", "162644.887000", "162644.890000", "162644.892000", "162644.895000", "162644.898000", "162644.900000", "162644.903000", "162644.906000", "162644.909000", "162644.911000", "162644.914000", "162644.917000", "162644.919000", "162644.922000", "162644.925000", "162644.927000", "162644.930000", "162644.938000", "162644.941000", "162644.944000", "162644.947000", "162644.949000", "162644.952000", "162644.955000", "162704.887000", "162704.889000", "162704.892000", "162704.895000", "162704.898000", "162704.900000", "162704.903000", "162704.906000", "162804.887000", "162804.890000", "162804.892000", "162804.895000", "162804.898000", "162804.900000", "162804.903000", "162804.906000", "162804.909000", "162804.912000", "162804.914000", "162804.917000", "162804.920000", "162804.923000", "162804.925000", "162804.928000", "162804.931000", "162804.933000", "162804.936000", "162804.939000", "162804.941000", "162804.944000", "162804.947000", "162804.949000", "162904.887000", "162904.890000", "162904.892000", "162904.895000", "162904.898000", "162904.901000", "162904.903000", "162904.906000", "162904.909000", "162904.911000", "162904.914000", "162904.917000", "162904.920000", "162904.923000", "162904.925000", "162904.928000", "162904.931000", "162904.933000", "162904.936000", "162904.939000", "162904.941000", "162904.944000", "162904.947000", "162904.949000", "162952.333000", "162952.336000", "162952.339000", "162952.341000", "162952.344000", "162952.347000", "162952.350000", "162952.353000", "162952.355000", "162952.358000", "162952.361000", "162952.364000", "162952.377000", "162952.380000", "162952.383000", "162952.386000", "162952.390000", "162952.393000", "162952.396000"],
      "InstanceNumber": [1, 2, 3, 4, 5, 6, 7, 8, 9, 10, 11, 12, 13, 14, 15, 16, 17, 18, 19, 20, 21, 22, 23, 24, 25, 26, 27, 28, 29, 30, 31, 32, 33, 34, 35, 36, 37, 38, 39, 40, 41, 42, 43, 44, 45, 46, 47, 48, 49, 50, 51, 52, 53, 54, 55, 56, 57, 58, 59, 60, 61, 62, 63, 64, 65, 66, 67, 68, 69, 70, 71, 72, 73, 74, 75, 76, 77, 78, 79, 80, 81, 82, 83, 84, 85, 86, 87, 88, 89, 90, 91, 92, 93, 94, 95, 96, 97, 98, 99, 100, 101, 102, 103, 104, 105, 106, 107, 108, 109, 110, 111, 112, 113, 114, 115, 116, 117, 118, 119, 120, 121, 122],
      "LargestImagePixelValue": [1467, 1415, 1391, 1388, 1392, 1388, 1430, 1386, 1385, 1374, 1378, 1379, 1396, 1392, 1398, 1397, 1377, 1372, 1373, 1391, 1455, 1394, 1385, 1377, 1369, 1363, 1376, 1400, 1381, 1377, 1379, 1385, 1389, 1413, 1369, 1420, 1369, 1372, 1402, 1380, 1385, 1379, 1398, 1431, 1397, 1402, 1428, 1390, 1386, 1390, 1458, 1460, 1387, 1375, 1381, 1390, 1418, 1452, 1405, 1365, 1380, 1382, 1386, 1389, 1376, 1375, 1374, 1398, 1386, 1383, 1396, 1378, 1375, 1396, 1423, 1380, 1368, 1370, 1380, 1418, 1444, 1383, 1387, 1372, 1365, 1373, 1386, 1386, 1385, 1452, 1377, 1388, 1361, 1401, 1385, 1374, 1373, 1388, 1400, 1385, 1395, 1387, 1415, 1388, 1385, 1380, 1395, 1389, 1424, 1480, 1378, 1369, 1413, 1376, 1361, 1375, 1388, 1400, 1377, 1386, 1405, 1378],
      "WindowCenter": [590.0, 587.0, 586.0, 585.0, 586.0, 585.0, 585.0, 584.0, 584.0, 584.0, 584.0, 584.0, 584.0, 584.0, 585.0, 585.0, 585.0, 584.0, 584.0, 584.0, 585.0, 585.0, 585.0, 584.0, 584.0, 584.0, 583.0, 583.0, 583.0, 583.0, 584.0, 584.0, 584.0, 585.0, 584.0, 584.0, 583.0, 583.0, 584.0, 584.0, 585.0, 585.0, 586.0, 587.0, 587.0, 586.0, 587.0, 586.0, 585.0, 585.0, 586.0, 585.0, 585.0, 584.0, 584.0, 584.0, 584.0, 585.0, 584.0, 584.0, 584.0, 584.0, 584.0, 584.0, 584.0, 584.0, 584.0, 584.0, 584.0, 584.0, 585.0, 585.0, 585.0, 585.0, 585.0, 584.0, 583.0, 583.0, 584.0, 585.0, 585.0, 585.0, 584.0, 584.0, 584.0, 584.0, 585.0, 585.0, 585.0, 585.0, 585.0, 585.0, 584.0, 586.0, 585.0, 584.0, 583.0, 584.0, 584.0, 584.0, 584.0, 585.0, 585.0, 585.0, 585.0, 585.0, 585.0, 584.0, 585.0, 585.0, 585.0, 584.0, 585.0, 582.0, 581.0, 582.0, 583.0, 585.0, 585.0, 585.0, 586.0, 585.0],
      "WindowWidth": [1244.0, 1236.0, 1234.0, 1233.0, 1233.0, 1232.0, 1232.0, 1231.0, 1230.0, 1231.0, 1230.0, 1230.0, 1231.0, 1231.0, 1232.0, 1232.0, 1231.0, 1230.0, 1230.0, 1231.0, 1232.0, 1232.0, 1231.0, 1230.0, 1230.0, 1229.0, 1229.0, 1228.0, 1228.0, 1229.0, 1229.0, 1230.0, 1229.0, 1231.0, 1230.0, 1229.0, 1228.0, 1229.0, 1230.0, 1230.0, 1231.0, 1232.0, 1233.0, 1235.0, 1235.0, 1234.0, 1235.0, 1234.0, 1232.0, 1231.0, 1233.0, 1232.0, 1231.0, 1230.0, 1229.0, 1230.0, 1231.0, 1231.0, 1230.0, 1229.0, 1230.0, 1229.0, 1230.0, 1230.0, 1230.0, 1230.0, 1230.0, 1231.0, 1229.0, 1230.0, 1231.0, 1231.0, 1231.0, 1232.0, 1232.0, 1229.0, 1228.0, 1228.0, 1229.0, 1231.0, 1233.0, 1231.0, 1230.0, 1230.0, 1230.0, 1230.0, 1231.0, 1231.0, 1231.0, 1233.0, 1232.0, 1232.0, 1230.0, 1234.0, 1233.0, 1229.0, 1227.0, 1229.0, 1229.0, 1230.0, 1231.0, 1231.0, 1232.0, 1233.0, 1232.0, 1232.0, 1232.0, 1230.0, 1232.0, 1232.0, 1232.0, 1230.0, 1232.0, 1227.0, 1223.0, 1226.0, 1228.0, 1231.0, 1232.0, 1231.0, 1233.0, 1233.0]
    },
    "slices": {}
  }
}