{
  "AcquisitionMatrixPE": 72,
  "AcquisitionNumber": 1,
  "AcquisitionTime": "16:24:47.875000",
  "BandwidthPerPixelPhaseEncode": 24.366,
  "BaseResolution": 72,
  "BodyPartExamined": "BRAIN",
  "CoilCombinationMethod": "Sum of Squares",
  "ConsistencyInfo": "N4_VE11C_LATEST_20160120",
  "ConversionSoftware": "dcm2niix",
  "ConversionSoftwareVersion": "v1.0.20220720",
  "DerivedVendorReportedEchoSpacing": 0.000570011,
  "DeviceSerialNumber": "45219",
  "DwellTime": 3.5e-06,
  "EchoTime": 0.03,
  "EchoTrainLength": 72,
  "EffectiveEchoSpacing": 0.000570011,
  "FlipAngle": 80,
  "HeudiconvVersion": "1.1.6",
  "ImageComments": "Reference volume for motion correction.",
  "ImageOrientationPatientDICOM": [0.998971, -0.00873354, 0.0445132, 6.03993e-08, 0.981291, 0.192529],
  "ImageOrientationText": "Tra>Cor(11.1)>Sag(2.6)",
  "ImageType": [
    "ORIGINAL",
    "PRIMARY",
    "M",
    "ND",
    "NORM",
    "MOCO",
    "MOSAIC"
],
  "ImagingFrequency": 123.182,
  "InPlanePhaseEncodingDirectionDICOM": "COL",
  "InstitutionAddress": "First Avenue 660,New York,NYC,US,10016",
  "InstitutionName": "NYU LANGONE CBI",
  "InstitutionalDepartmentName": "Department",
  "MRAcquisitionType": "2D",
  "MagneticFieldStrength": 3,
  "Manufacturer": "Siemens",
  "ManufacturersModelName": "Skyra",
  "MatrixCoilMode": "SENSE",
  "Modality": "MR",
  "NonlinearGradientCorrection": false,
  "PartialFourier": 1,
  "PatientPosition": "HFS",
  "PercentPhaseFOV": 100,
  "PercentSampling": 100,
  "PhaseEncodingDirection": "j-",
  "PhaseEncodingSteps": 72,
  "PhaseResolution": 1,
  "PixelBandwidth": 1985,
  "ProcedureStepDescription": "MRI BRAIN WITHOUT IV CONTRAST",
  "ProtocolName": "REST_2_MoCo",
  "PulseSequenceDetails": "%SiemensSeq%\\ep2d_bold",
  "ReceiveCoilActiveElements": "HE1-4",
  "ReceiveCoilName": "HeadNeck_20",
  "ReconMatrixPE": 72,
  "RepetitionTime": 2.5,
  "SAR": 0.147254,
  "ScanOptions": "FS",
  "ScanningSequence": "EP",
  "SequenceName": "*epfid2d1_72",
  "SequenceVariant": "SK",
  "SeriesDescription": "MoCoSeries",
  "SeriesNumber": 9,
  "ShimSetting": [-873, -7026, 5081, 330, -204, -171, 25, -130],
  "SliceThickness": 3,
  "SliceTiming": [1.24, 0, 1.305, 0.065, 1.37, 0.13, 1.435, 0.195, 1.5, 0.26, 1.565, 0.325, 1.63, 0.39, 1.695, 0.455, 1.7625, 0.5225, 1.8275, 0.5875, 1.8925, 0.6525, 1.9575, 0.7175, 2.0225, 0.7825, 2.0875, 0.8475, 2.1525, 0.9125, 2.2175, 0.9775, 2.2825, 1.0425, 2.3475, 1.1075, 2.415, 1.175],
  "SoftwareVersions": "syngo MR E11",
  "SpacingBetweenSlices": 3,
  "StationName": "MRC45219",
  "TaskName": "rest",
  "TotalReadoutTime": 0.0404708,
  "TxRefAmp": 435.26,
  "dcmmeta_affine": [
    [-2.9969117641448975, 1.811978762589206e-07, 0.1360856592655182, 105.37189483642578],
    [0.02620062045753002, 2.943873882293701, 0.5769925117492676, -120.76266479492188],
    [0.13353964686393738, -0.5775871276855469, 2.940843343734741, -6.2603302001953125],
    [0.0, 0.0, 0.0, 1.0]
],
  "dcmmeta_reorient_transform": [
    [0.0, -1.0, 0.0, 71.0],
    [1.0, 0.0, 0.0, 0.0],
    [0.0, 0.0, 1.0, 0.0],
    [0.0, 0.0, 0.0, 1.0]
],
  "dcmmeta_shape": [72, 72, 38, 122],
  "dcmmeta_slice_dim": 2,
  "dcmmeta_version": 0.6,
  "global": {
    "const": {
      "AccessionNumber": "REMOVED",
      "AcquisitionMatrix": [72, 0, 0, 72],
      "AngioFlag": "N",
      "BitsAllocated": 16,
      "BitsStored": 12,
      "BodyPartExamined": "BRAIN",
      "Columns": 504,
      "CountryOfResidence": "REMOVED",
      "DeidentificationMethod": "anonymize.default",
      "DeidentificationMethodCodeSequence": [
        {
          "CodeMeaning": "Basic Anonymization",
          "CodeValue": "113199",
          "CodingSchemeDesignator": "2012CDX"
        }
],
      "EchoNumbers": 1,
      "EchoTime": 30.0,
      "EchoTrainLength": 72,
      "FlipAngle": 80.0,
      "HighBit": 11,
      "ImageOrientationPatient": [0.99897061963844, -0.0087335400967, 0.0445132157519, 6.0399291e-08, 0.98129127758832, 0.19252903295107],
      "ImagePositionPatient": [-752.70491211145, -718.46978838338, -200.87239132865],
      "ImageType": [
        "ORIGINAL",
        "PRIMARY",
        "M",
        "ND",
        "NORM",
        "MOCO",
        "MOSAIC"
],
      "ImagedNucleus": "1H",
      "ImagingFrequency": 123.181875,
      "InPlanePhaseEncodingDirection": "COL",
      "MRAcquisitionType": "2D",
      "MagneticFieldStrength": 3.0,
      "Manufacturer": "SIEMENS",
      "ManufacturerModelName": "Skyra",
      "Modality": "MR",
      "NumberOfAverages": 1.0,
      "NumberOfPhaseEncodingSteps": 72,
      "PercentPhaseFieldOfView": 100.0,
      "PercentSampling": 100.0,
      "PerformedProcedureStepStartTime": "160656.580000",
      "PhotometricInterpretation": "MONOCHROME2",
      "PixelBandwidth": 1985.0,
      "PixelRepresentation": 0,
      "PixelSpacing": [3.0, 3.0],
      "PregnancyStatus": 0,
      "ProcedureCodeSequence": [
        {
          "CodeMeaning": "MRI BRAIN WITHOUT IV CONTRAST",
          "CodeValue": "IMG269",
          "CodingSchemeDesignator": "L"
        }
],
      "ProtocolName": "REST_2",
      "RepetitionTime": 2500.0,
      "RequestAttributesSequence": [
        {
          "RequestedProcedureID": "331159177",
          "ScheduledProcedureStepDescription": "MRI BRAIN WITHOUT IV CONTRAST",
          "ScheduledProcedureStepID": "E10595114",
          "ScheduledProtocolCodeSequence": [
            {
              "CodeMeaning": "MRI BRAIN WITHOUT IV CONTRAST",
              "CodeValue": "651061",
              "CodingSchemeDesignator": "L"
            }
]
        }
],
      "RequestedProcedureCodeSequence": [
        {
          "CodeMeaning": "MRI BRAIN WITHOUT IV CONTRAST",
          "CodeValue": "IMG269",
          "CodingSchemeDesignator": "L"
        }
],
      "Rows": 504,
      "SAR": 0.14725431360469,
      "SamplesPerPixel": 1,
      "ScanOptions": "FS",
      "ScanningSequence": "EP",
      "SequenceName": "*epfid2d1_72",
      "SequenceVariant": "SK",
      "SeriesDescription": "MoCoSeries",
      "SeriesNumber": 9,
      "SeriesTime": "162545.003000",
      "SliceLocation": -24.58340103457,
      "SliceThickness": 3.0,
      "SmallestImagePixelValue": 0,
      "SmokingStatus": "REMOVED",
      "SoftwareVersions": "syngo MR E11",
      "SpacingBetweenSlices": 2.9999999014272,
      "SpecificCharacterSet": "ISO_IR 100",
      "StudyID": "REMOVED",
      "StudyTime": "160656.417000",
      "TransmitCoilName": "Body",
      "VariableFlipAngleFlag": "N",
      "WindowCenterWidthExplanation": "Algo1",
      "dBdt": 0.0},
    "slices": {}
  },
  "time": {
    "samples": {
      "AcquisitionNumber": [1, 2, 3, 4, 5, 6, 7, 8, 9, 10, 11, 12, 13, 14, 15, 16, 17, 18, 19, 20, 21, 22, 23, 24, 25, 26, 27, 28, 29, 30, 31, 32, 33, 34, 35, 36, 37, 38, 39, 40, 41, 42, 43, 44, 45, 46, 47, 48, 49, 50, 51, 52, 53, 54, 55, 56, 57, 58, 59, 60, 61, 62, 63, 64, 65, 66, 67, 68, 69, 70, 71, 72, 73, 74, 75, 76, 77, 78, 79, 80, 81, 82, 83, 84, 85, 86, 87, 88, 89, 90, 91, 92, 93, 94, 95, 96, 97, 98, 99, 100, 101, 102, 103, 104, 105, 106, 107, 108, 109, 110, 111, 112, 113, 114, 115, 116, 117, 118, 119, 120, 121, 122],
      "AcquisitionTime": ["162447.875000", "162450.375000", "162452.875000", "162455.375000", "162457.875000", "162500.375000", "162502.875000", "162505.375000", "162507.875000", "162510.375000", "162512.875000", "162515.375000", "162517.875000", "162520.375000", "162522.875000", "162525.375000", "162527.875000", "162530.375000", "162532.875000", "162535.375000", "162537.875000", "162540.375000", "162542.875000", "162545.375000", "162547.875000", "162550.375000", "162552.875000", "162555.375000", "162557.875000", "162600.375000", "162602.875000", "162605.375000", "162607.875000", "162610.375000", "162612.875000", "162615.375000", "162617.875000", "162620.375000", "162622.875000", "162625.375000", "162627.875000", "162630.375000", "162632.875000", "162635.375000", "162637.875000", "162640.375000", "162642.875000", "162645.375000", "162647.875000", "162650.375000", "162652.875000", "162655.375000", "162657.875000", "162700.375000", "162702.875000", "162705.375000", "162707.875000", "162710.375000", "162712.875000", "162715.375000", "162717.875000", "162720.375000", "162722.875000", "162725.375000", "162727.875000", "162730.375000", "162732.875000", "162735.375000", "162737.875000", "162740.375000", "162742.875000", "162745.375000", "162747.875000", "162750.375000", "162752.875000", "162755.375000", "162757.875000", "162800.375000", "162802.875000", "162805.375000", "162807.875000", "162810.375000", "162812.875000", "162815.375000", "162817.875000", "162820.375000", "162822.875000", "162825.375000", "162827.875000", "162830.375000", "162832.875000", "162835.375000", "162837.875000", "162840.375000", "162842.875000", "162845.375000", "162847.875000", "162850.375000", "162852.875000", "162855.375000", "162857.875000", "162900.375000", "162902.875000", "162905.375000", "162907.875000", "162910.375000", "162912.875000", "162915.375000", "162917.875000", "162920.375000", "162922.875000", "162925.375000", "162927.875000", "162930.375000", "162932.875000", "162935.375000", "162937.875000", "162940.375000", "162942.875000", "162945.375000", "162947.875000", "162950.375000"],
      "ContentTime": ["162545.006000", "162545.009000", "162545.012000", "162545.014000", "162545.024000", "162545.027000", "162545.036000", "162545.038000", "162545.041000", "162545.044000", "162545.047000", "162545.050000", "162545.052000", "162545.055000", "162545.058000", "162545.061000", "162545.064000", "162545.067000", "162545.069000", "162545.072000", "162545.075000", "162545.078000", "162545.080000", "162644.993000", "162644.996000", "162645.000000", "162645.003000", "162645.006000", "162645.008000", "162645.011000", "162645.014000", "162645.017000", "162645.019000", "162645.022000", "162645.025000", "162645.028000", "162645.030000", "162645.033000", "162645.036000", "162645.039000", "162645.041000", "162645.044000", "162645.047000", "162645.050000", "162645.053000", "162645.055000", "162645.058000", "162704.940000", "162704.943000", "162704.946000", "162704.949000", "162704.952000", "162704.954000", "162704.957000", "162704.960000", "162804.985000", "162804.988000", "162804.991000", "162804.994000", "162804.997000", "162805.000000", "162805.003000", "162805.006000", "162805.009000", "162805.012000", "162805.015000", "162805.017000", "162805.020000", "162805.023000", "162805.026000", "162805.028000", "162805.031000", "162805.034000", "162805.037000", "162805.040000", "162805.042000", "162805.045000", "162805.048000", "162805.051000", "162904.980000", "162904.983000", "162904.985000", "162904.988000", "162904.991000", "162904.994000", "162904.997000", "162905.000000", "162905.003000", "162905.006000", "162905.009000", "162905.012000", "162905.015000", "162905.017000", "162905.020000", "162905.023000", "162905.026000", "162905.029000", "162905.031000", "162905.034000", "162905.037000", "162905.040000", "162905.042000", "162905.045000", "162952.431000", "162952.434000", "162952.437000", "162952.440000", "162952.443000", "162952.453000", "162952.456000", "162952.459000", "162952.461000", "162952.464000", "162952.467000", "162952.489000", "162952.492000", "162952.498000", "162952.501000", "162952.504000", "162952.507000", "162952.510000", "162952.512000"],
      "InstanceCreationTime": ["162545.006000", "162545.009000", "162545.012000", "162545.014000", "162545.024000", "162545.027000", "162545.036000", "162545.038000", "162545.041000", "162545.044000", "162545.047000", "162545.050000", "162545.052000", "162545.055000", "162545.058000", "162545.061000", "162545.064000", "162545.067000", "162545.069000", "162545.072000", "162545.075000", "162545.078000", "162545.080000", "162644.993000", "162644.996000", "162645.000000", "162645.003000", "162645.006000", "162645.008000", "162645.011000", "162645.014000", "162645.017000", "162645.019000", "162645.022000", "162645.025000", "162645.028000", "162645.030000", "162645.033000", "162645.036000", "162645.039000", "162645.041000", "162645.044000", "162645.047000", "162645.050000", "162645.053000", "162645.055000", "162645.058000", "162704.940000", "162704.943000", "162704.946000", "162704.949000", "162704.952000", "162704.954000", "162704.957000", "162704.960000", "162804.985000", "162804.988000", "162804.991000", "162804.994000", "162804.997000", "162805.000000", "162805.003000", "162805.006000", "162805.009000", "162805.012000", "162805.015000", "162805.017000", "162805.020000", "162805.023000", "162805.026000", "162805.028000", "162805.031000", "162805.034000", "162805.037000", "162805.040000", "162805.042000", "162805.045000", "162805.048000", "162805.051000", "162904.980000", "162904.983000", "162904.985000", "162904.988000", "162904.991000", "162904.994000", "162904.997000", "162905.000000", "162905.003000", "162905.006000", "162905.009000", "162905.012000", "162905.015000", "162905.017000", "162905.020000", "162905.023000", "162905.026000", "162905.029000", "162905.031000", "162905.034000", "162905.037000", "162905.040000", "162905.042000", "162905.045000", "162952.431000", "162952.434000", "162952.437000", "162952.440000", "162952.443000", "162952.453000", "162952.456000", "162952.459000", "162952.461000", "162952.464000", "162952.467000", "162952.489000", "162952.492000", "162952.498000", "162952.501000", "162952.504000", "162952.507000", "162952.510000", "162952.512000"],
      "InstanceNumber": [1, 2, 3, 4, 5, 6, 7, 8, 9, 10, 11, 12, 13, 14, 15, 16, 17, 18, 19, 20, 21, 22, 23, 24, 25, 26, 27, 28, 29, 30, 31, 32, 33, 34, 35, 36, 37, 38, 39, 40, 41, 42, 43, 44, 45, 46, 47, 48, 49, 50, 51, 52, 53, 54, 55, 56, 57, 58, 59, 60, 61, 62, 63, 64, 65, 66, 67, 68, 69, 70, 71, 72, 73, 74, 75, 76, 77, 78, 79, 80, 81, 82, 83, 84, 85, 86, 87, 88, 89, 90, 91, 92, 93, 94, 95, 96, 97, 98, 99, 100, 101, 102, 103, 104, 105, 106, 107, 108, 109, 110, 111, 112, 113, 114, 115, 116, 117, 118, 119, 120, 121, 122],
      "LargestImagePixelValue": [1467, 1418, 1396, 1398, 1408, 1406, 1433, 1404, 1394, 1384, 1385, 1384, 1396, 1392, 1398, 1397, 1383, 1378, 1382, 1396, 1454, 1393, 1395, 1390, 1379, 1373, 1385, 1403, 1385, 1387, 1388, 1390, 1391, 1405, 1371, 1431, 1380, 1378, 1399, 1385, 1385, 1375, 1398, 1432, 1409, 1413, 1425, 1399, 1397, 1391, 1455, 1457, 1390, 1399, 1400, 1410, 1424, 1449, 1401, 1377, 1393, 1399, 1404, 1395, 1376, 1383, 1390, 1404, 1386, 1382, 1393, 1379, 1385, 1410, 1428, 1386, 1381, 1382, 1392, 1416, 1442, 1388, 1390, 1404, 1409, 1422, 1419, 1428, 1420, 1445, 1420, 1424, 1354, 1402, 1385, 1384, 1372, 1401, 1398, 1376, 1377, 1374, 1423, 1395, 1382, 1379, 1411, 1398, 1420, 1387, 1375, 1370, 1411, 1369, 1366, 1372, 1385, 1416, 1375, 1373, 1399, 1382],
      "WindowCenter": [590.0, 587.0, 586.0, 586.0, 586.0, 586.0, 585.0, 584.0, 584.0, 584.0, 584.0, 584.0, 584.0, 585.0, 585.0, 585.0, 585.0, 584.0, 584.0, 584.0, 585.0, 585.0, 585.0, 584.0, 584.0, 584.0, 583.0, 583.0, 583.0, 583.0, 584.0, 584.0, 584.0, 584.0, 585.0, 584.0, 583.0, 583.0, 584.0, 584.0, 585.0, 585.0, 586.0, 587.0, 587.0, 586.0, 586.0, 586.0, 585.0, 584.0, 585.0, 585.0, 585.0, 584.0, 584.0, 584.0, 584.0, 584.0, 584.0, 584.0, 584.0, 584.0, 584.0, 584.0, 584.0, 584.0, 584.0, 584.0, 584.0, 584.0, 585.0, 585.0, 584.0, 586.0, 585.0, 584.0, 583.0, 583.0, 584.0, 584.0, 585.0, 584.0, 584.0, 584.0, 585.0, 584.0, 585.0, 585.0, 585.0, 585.0, 585.0, 585.0, 584.0, 586.0, 585.0, 583.0, 583.0, 583.0, 584.0, 584.0, 584.0, 584.0, 585.0, 585.0, 585.0, 584.0, 585.0, 584.0, 585.0, 584.0, 584.0, 584.0, 585.0, 582.0, 580.0, 582.0, 583.0, 584.0, 584.0, 584.0, 585.0, 585.0],
      "WindowWidth": [1244.0, 1236.0, 1234.0, 1233.0, 1233.0, 1233.0, 1232.0, 1231.0, 1231.0, 1231.0, 1230.0, 1229.0, 1231.0, 1231.0, 1232.0, 1231.0, 1231.0, 1231.0, 1231.0, 1231.0, 1232.0, 1231.0, 1231.0, 1231.0, 1230.0, 1230.0, 1229.0, 1228.0, 1228.0, 1229.0, 1229.0, 1230.0, 1230.0, 1230.0, 1231.0, 1229.0, 1228.0, 1229.0, 1230.0, 1230.0, 1231.0, 1232.0, 1233.0, 1235.0, 1235.0, 1234.0, 1235.0, 1233.0, 1232.0, 1230.0, 1233.0, 1232.0, 1231.0, 1230.0, 1229.0, 1230.0, 1231.0, 1230.0, 1230.0, 1229.0, 1230.0, 1230.0, 1230.0, 1230.0, 1229.0, 1230.0, 1231.0, 1230.0, 1229.0, 1229.0, 1231.0, 1231.0, 1230.0, 1233.0, 1232.0, 1229.0, 1228.0, 1228.0, 1229.0, 1231.0, 1232.0, 1231.0, 1230.0, 1230.0, 1231.0, 1230.0, 1231.0, 1231.0, 1232.0, 1232.0, 1232.0, 1232.0, 1229.0, 1234.0, 1231.0, 1228.0, 1227.0, 1228.0, 1229.0, 1230.0, 1229.0, 1230.0, 1232.0, 1232.0, 1232.0, 1231.0, 1231.0, 1229.0, 1231.0, 1230.0, 1231.0, 1229.0, 1231.0, 1225.0, 1222.0, 1225.0, 1227.0, 1230.0, 1230.0, 1230.0, 1231.0, 1231.0]
    },
    "slices": {}
  }
}