{
  "AcquisitionMatrixPE": 72,
  "AcquisitionNumber": 1,
  "AcquisitionTime": "16:30:42.810000",
  "BandwidthPerPixelPhaseEncode": 24.366,
  "BaseResolution": 72,
  "BodyPartExamined": "BRAIN",
  "CoilCombinationMethod": "Sum of Squares",
  "ConsistencyInfo": "N4_VE11C_LATEST_20160120",
  "ConversionSoftware": "dcm2niix",
  "ConversionSoftwareVersion": "v1.0.20220720",
  "DerivedVendorReportedEchoSpacing": 0.000570011,
  "DeviceSerialNumber": "45219",
  "DwellTime": 3.5e-06,
  "EchoTime": 0.03,
  "EchoTrainLength": 72,
  "EffectiveEchoSpacing": 0.000570011,
  "FlipAngle": 80,
  "HeudiconvVersion": "1.1.6",
  "ImageOrientationPatientDICOM": [0.998971, -0.00873354, 0.0445132, 6.03993e-08, 0.981291, 0.192529],
  "ImageOrientationText": "Tra>Cor(11.1)>Sag(2.6)",
  "ImageType": [
    "ORIGINAL",
    "PRIMARY",
    "M",
    "ND",
    "NORM",
    "MOSAIC"
],
  "ImagingFrequency": 123.182,
  "InPlanePhaseEncodingDirectionDICOM": "COL",
  "InstitutionAddress": "First Avenue 660,New York,NYC,US,10016",
  "InstitutionName": "NYU LANGONE CBI",
  "InstitutionalDepartmentName": "Department",
  "MRAcquisitionType": "2D",
  "MagneticFieldStrength": 3,
  "Manufacturer": "Siemens",
  "ManufacturersModelName": "Skyra",
  "MatrixCoilMode": "SENSE",
  "Modality": "MR",
  "NonlinearGradientCorrection": false,
  "PartialFourier": 1,
  "PatientPosition": "HFS",
  "PercentPhaseFOV": 100,
  "PercentSampling": 100,
  "PhaseEncodingDirection": "j-",
  "PhaseEncodingSteps": 72,
  "PhaseResolution": 1,
  "PixelBandwidth": 1985,
  "ProcedureStepDescription": "MRI BRAIN WITHOUT IV CONTRAST",
  "ProtocolName": "TASK_AB",
  "PulseSequenceDetails": "%SiemensSeq%\\ep2d_bold",
  "ReceiveCoilActiveElements": "HE1-4",
  "ReceiveCoilName": "HeadNeck_20",
  "ReconMatrixPE": 72,
  "RepetitionTime": 2.5,
  "SAR": 0.147307,
  "ScanOptions": "FS",
  "ScanningSequence": "EP",
  "SequenceName": "*epfid2d1_72",
  "SequenceVariant": "SK",
  "SeriesDescription": "TASK_AB",
  "SeriesNumber": 10,
  "ShimSetting": [-873, -7026, 5081, 330, -204, -171, 25, -130],
  "SliceThickness": 3,
  "SliceTiming": [1.24, 0, 1.305, 0.0675, 1.3725, 0.1325, 1.4375, 0.1975, 1.5025, 0.2625, 1.5675, 0.3275, 1.6325, 0.3925, 1.6975, 0.4575, 1.7625, 0.5225, 1.8275, 0.5875, 1.8925, 0.6525, 1.96, 0.72, 2.025, 0.785, 2.09, 0.85, 2.155, 0.915, 2.22, 0.98, 2.285, 1.045, 2.35, 1.11, 2.415, 1.175],
  "SoftwareVersions": "syngo MR E11",
  "SpacingBetweenSlices": 3,
  "StationName": "MRC45219",
  "TaskName": "ab",
  "TotalReadoutTime": 0.0404708,
  "TxRefAmp": 435.26,
  "dcmmeta_affine": [
    [-2.9969117641448975, 1.811978762589206e-07, 0.1360856592655182, 105.37189483642578],
    [0.02620062045753002, 2.943873882293701, 0.5769925117492676, -120.76266479492188],
    [0.13353964686393738, -0.5775871276855469, 2.940843343734741, -6.2603302001953125],
    [0.0, 0.0, 0.0, 1.0]
],
  "dcmmeta_reorient_transform": [
    [0.0, -1.0, 0.0, 71.0],
    [1.0, 0.0, 0.0, 0.0],
    [0.0, 0.0, 1.0, 0.0],
    [0.0, 0.0, 0.0, 1.0]
],
  "dcmmeta_shape": [72, 72, 38, 132],
  "dcmmeta_slice_dim": 2,
  "dcmmeta_version": 0.6,
  "global": {
    "const": {
      "AccessionNumber": "REMOVED",
      "AcquisitionMatrix": [72, 0, 0, 72],
      "AngioFlag": "N",
      "BitsAllocated": 16,
      "BitsStored": 12,
      "BodyPartExamined": "BRAIN",
      "Columns": 504,
      "CountryOfResidence": "REMOVED",
      "DeidentificationMethod": "anonymize.default",
      "DeidentificationMethodCodeSequence": [
        {
          "CodeMeaning": "Basic Anonymization",
          "CodeValue": "113199",
          "CodingSchemeDesignator": "2012CDX"
        }
],
      "EchoNumbers": 1,
      "EchoTime": 30.0,
      "EchoTrainLength": 72,
      "FlipAngle": 80.0,
      "HighBit": 11,
      "ImageOrientationPatient": [0.99897061963844, -0.0087335400967, 0.0445132157519, 6.0399291e-08, 0.98129127758832, 0.19252903295107],
      "ImagePositionPatient": [-752.70491211145, -718.46978838338, -200.87239132865],
      "ImageType": [
        "ORIGINAL",
        "PRIMARY",
        "M",
        "ND",
        "NORM",
        "MOSAIC"
],
      "ImagedNucleus": "1H",
      "ImagingFrequency": 123.181904,
      "InPlanePhaseEncodingDirection": "COL",
      "MRAcquisitionType": "2D",
      "MagneticFieldStrength": 3.0,
      "Manufacturer": "SIEMENS",
      "ManufacturerModelName": "Skyra",
      "Modality": "MR",
      "NumberOfAverages": 1.0,
      "NumberOfPhaseEncodingSteps": 72,
      "PercentPhaseFieldOfView": 100.0,
      "PercentSampling": 100.0,
      "PerformedProcedureStepStartTime": "160656.580000",
      "PhotometricInterpretation": "MONOCHROME2",
      "PixelBandwidth": 1985.0,
      "PixelRepresentation": 0,
      "PixelSpacing": [3.0, 3.0],
      "PregnancyStatus": 0,
      "ProcedureCodeSequence": [
        {
          "CodeMeaning": "MRI BRAIN WITHOUT IV CONTRAST",
          "CodeValue": "IMG269",
          "CodingSchemeDesignator": "L"
        }
],
      "ProtocolName": "TASK_AB",
      "RepetitionTime": 2500.0,
      "RequestAttributesSequence": [
        {
          "RequestedProcedureID": "331159177",
          "ScheduledProcedureStepDescription": "MRI BRAIN WITHOUT IV CONTRAST",
          "ScheduledProcedureStepID": "E10595114",
          "ScheduledProtocolCodeSequence": [
            {
              "CodeMeaning": "MRI BRAIN WITHOUT IV CONTRAST",
              "CodeValue": "651061",
              "CodingSchemeDesignator": "L"
            }
]
        }
],
      "RequestedProcedureCodeSequence": [
        {
          "CodeMeaning": "MRI BRAIN WITHOUT IV CONTRAST",
          "CodeValue": "IMG269",
          "CodingSchemeDesignator": "L"
        }
],
      "Rows": 504,
      "SAR": 0.1473072566072,
      "SamplesPerPixel": 1,
      "ScanOptions": "FS",
      "ScanningSequence": "EP",
      "SequenceName": "*epfid2d1_72",
      "SequenceVariant": "SK",
      "SeriesDescription": "TASK_AB",
      "SeriesNumber": 10,
      "SeriesTime": "163144.337000",
      "SliceLocation": -24.58340103457,
      "SliceThickness": 3.0,
      "SmallestImagePixelValue": 0,
      "SmokingStatus": "REMOVED",
      "SoftwareVersions": "syngo MR E11",
      "SpacingBetweenSlices": 2.9999999014272,
      "SpecificCharacterSet": "ISO_IR 100",
      "StudyID": "REMOVED",
      "StudyTime": "160656.417000",
      "TransmitCoilName": "Body",
      "VariableFlipAngleFlag": "N",
      "WindowCenterWidthExplanation": "Algo1",
      "dBdt": 0.0},
    "slices": {}
  },
  "time": {
    "samples": {
      "AcquisitionNumber": [1, 2, 3, 4, 5, 6, 7, 8, 9, 10, 11, 12, 13, 14, 15, 16, 17, 18, 19, 20, 21, 22, 23, 24, 25, 26, 27, 28, 29, 30, 31, 32, 33, 34, 35, 36, 37, 38, 39, 40, 41, 42, 43, 44, 45, 46, 47, 48, 49, 50, 51, 52, 53, 54, 55, 56, 57, 58, 59, 60, 61, 62, 63, 64, 65, 66, 67, 68, 69, 70, 71, 72, 73, 74, 75, 76, 77, 78, 79, 80, 81, 82, 83, 84, 85, 86, 87, 88, 89, 90, 91, 92, 93, 94, 95, 96, 97, 98, 99, 100, 101, 102, 103, 104, 105, 106, 107, 108, 109, 110, 111, 112, 113, 114, 115, 116, 117, 118, 119, 120, 121, 122, 123, 124, 125, 126, 127, 128, 129, 130, 131, 132],
      "AcquisitionTime": ["163042.810000", "163045.310000", "163047.810000", "163050.310000", "163052.810000", "163055.310000", "163057.810000", "163100.310000", "163102.810000", "163105.310000", "163107.810000", "163110.310000", "163112.810000", "163115.310000", "163117.810000", "163120.310000", "163122.810000", "163125.310000", "163127.810000", "163130.310000", "163132.810000", "163135.310000", "163137.810000", "163140.310000", "163142.810000", "163145.310000", "163147.810000", "163150.310000", "163152.810000", "163155.310000", "163157.810000", "163200.310000", "163202.810000", "163205.310000", "163207.810000", "163210.310000", "163212.810000", "163215.310000", "163217.810000", "163220.310000", "163222.810000", "163225.310000", "163227.810000", "163230.310000", "163232.810000", "163235.310000", "163237.810000", "163240.310000", "163242.810000", "163245.310000", "163247.810000", "163250.310000", "163252.810000", "163255.310000", "163257.810000", "163300.310000", "163302.810000", "163305.310000", "163307.810000", "163310.310000", "163312.810000", "163315.310000", "163317.810000", "163320.310000", "163322.810000", "163325.310000", "163327.810000", "163330.310000", "163332.810000", "163335.310000", "163337.810000", "163340.310000", "163342.810000", "163345.310000", "163347.810000", "163350.310000", "163352.810000", "163355.310000", "163357.810000", "163400.310000", "163402.810000", "163405.310000", "163407.810000", "163410.310000", "163412.810000", "163415.310000", "163417.810000", "163420.310000", "163422.810000", "163425.310000", "163427.810000", "163430.310000", "163432.810000", "163435.310000", "163437.810000", "163440.310000", "163442.810000", "163445.310000", "163447.810000", "163450.310000", "163452.810000", "163455.310000", "163457.810000", "163500.310000", "163502.810000", "163505.310000", "163507.810000", "163510.310000", "163512.810000", "163515.310000", "163517.810000", "163520.310000", "163522.810000", "163525.310000", "163527.810000", "163530.310000", "163532.810000", "163535.310000", "163537.810000", "163540.310000", "163542.810000", "163545.310000", "163547.810000", "163550.310000", "163552.810000", "163555.310000", "163557.810000", "163600.310000", "163602.810000", "163605.310000", "163607.810000", "163610.310000"],
      "ContentTime": ["163144.341000", "163144.345000", "163144.347000", "163144.350000", "163144.353000", "163144.355000", "163144.358000", "163144.361000", "163144.364000", "163144.366000", "163144.369000", "163144.372000", "163144.375000", "163144.377000", "163144.380000", "163144.383000", "163144.385000", "163144.388000", "163144.391000", "163144.394000", "163144.405000", "163144.408000", "163144.411000", "163144.413000", "163244.336000", "163244.339000", "163244.341000", "163244.344000", "163244.347000", "163244.349000", "163244.352000", "163244.355000", "163244.358000", "163244.360000", "163244.363000", "163244.366000", "163244.369000", "163244.380000", "163244.383000", "163244.386000", "163244.389000", "163244.391000", "163244.394000", "163244.397000", "163244.399000", "163244.402000", "163244.405000", "163244.407000", "163344.336000", "163344.338000", "163344.341000", "163344.344000", "163344.347000", "163344.349000", "163344.352000", "163344.355000", "163344.357000", "163344.360000", "163344.363000", "163344.371000", "163344.374000", "163344.377000", "163344.379000", "163344.382000", "163344.385000", "163344.388000", "163344.390000", "163344.393000", "163344.396000", "163344.398000", "163344.401000", "163344.404000", "163444.336000", "163444.339000", "163444.341000", "163444.344000", "163444.347000", "163444.350000", "163444.352000", "163444.355000", "163444.358000", "163444.360000", "163444.363000", "163444.366000", "163444.369000", "163444.371000", "163444.374000", "163444.377000", "163444.379000", "163444.382000", "163444.385000", "163444.387000", "163444.390000", "163444.393000", "163444.396000", "163444.398000", "163544.336000", "163544.339000", "163544.341000", "163544.344000", "163544.347000", "163544.350000", "163544.352000", "163544.355000", "163544.358000", "163544.360000", "163544.363000", "163544.366000", "163544.369000", "163544.371000", "163544.374000", "163544.377000", "163544.379000", "163544.382000", "163544.385000", "163544.387000", "163544.390000", "163544.393000", "163544.396000", "163544.398000", "163612.142000", "163612.145000", "163612.148000", "163612.151000", "163612.160000", "163612.163000", "163612.165000", "163612.168000", "163612.171000", "163612.195000", "163612.200000", "163612.204000"],
      "InstanceCreationTime": ["163144.341000", "163144.345000", "163144.347000", "163144.350000", "163144.353000", "163144.355000", "163144.358000", "163144.361000", "163144.364000", "163144.366000", "163144.369000", "163144.372000", "163144.375000", "163144.377000", "163144.380000", "163144.383000", "163144.385000", "163144.388000", "163144.391000", "163144.394000", "163144.405000", "163144.408000", "163144.411000", "163144.413000", "163244.336000", "163244.339000", "163244.341000", "163244.344000", "163244.347000", "163244.349000", "163244.352000", "163244.355000", "163244.358000", "163244.360000", "163244.363000", "163244.366000", "163244.369000", "163244.380000", "163244.383000", "163244.386000", "163244.389000", "163244.391000", "163244.394000", "163244.397000", "163244.399000", "163244.402000", "163244.405000", "163244.407000", "163344.336000", "163344.338000", "163344.341000", "163344.344000", "163344.347000", "163344.349000", "163344.352000", "163344.355000", "163344.357000", "163344.360000", "163344.363000", "163344.371000", "163344.374000", "163344.377000", "163344.379000", "163344.382000", "163344.385000", "163344.388000", "163344.390000", "163344.393000", "163344.396000", "163344.398000", "163344.401000", "163344.404000", "163444.336000", "163444.339000", "163444.341000", "163444.344000", "163444.347000", "163444.350000", "163444.352000", "163444.355000", "163444.358000", "163444.360000", "163444.363000", "163444.366000", "163444.369000", "163444.371000", "163444.374000", "163444.377000", "163444.379000", "163444.382000", "163444.385000", "163444.387000", "163444.390000", "163444.393000", "163444.396000", "163444.398000", "163544.336000", "163544.339000", "163544.341000", "163544.344000", "163544.347000", "163544.350000", "163544.352000", "163544.355000", "163544.358000", "163544.360000", "163544.363000", "163544.366000", "163544.369000", "163544.371000", "163544.374000", "163544.377000", "163544.379000", "163544.382000", "163544.385000", "163544.387000", "163544.390000", "163544.393000", "163544.396000", "163544.398000", "163612.142000", "163612.145000", "163612.148000", "163612.151000", "163612.160000", "163612.163000", "163612.165000", "163612.168000", "163612.171000", "163612.195000", "163612.200000", "163612.204000"],
      "InstanceNumber": [1, 2, 3, 4, 5, 6, 7, 8, 9, 10, 11, 12, 13, 14, 15, 16, 17, 18, 19, 20, 21, 22, 23, 24, 25, 26, 27, 28, 29, 30, 31, 32, 33, 34, 35, 36, 37, 38, 39, 40, 41, 42, 43, 44, 45, 46, 47, 48, 49, 50, 51, 52, 53, 54, 55, 56, 57, 58, 59, 60, 61, 62, 63, 64, 65, 66, 67, 68, 69, 70, 71, 72, 73, 74, 75, 76, 77, 78, 79, 80, 81, 82, 83, 84, 85, 86, 87, 88, 89, 90, 91, 92, 93, 94, 95, 96, 97, 98, 99, 100, 101, 102, 103, 104, 105, 106, 107, 108, 109, 110, 111, 112, 113, 114, 115, 116, 117, 118, 119, 120, 121, 122, 123, 124, 125, 126, 127, 128, 129, 130, 131, 132],
      "LargestImagePixelValue": [1445, 1370, 1389, 1438, 1393, 1385, 1378, 1378, 1394, 1397, 1405, 1398, 1387, 1369, 1385, 1414, 1407, 1409, 1402, 1380, 1393, 1400, 1387, 1395, 1401, 1372, 1386, 1382, 1396, 1412, 1415, 1400, 1379, 1383, 1402, 1384, 1376, 1385, 1372, 1375, 1420, 1538, 1395, 1396, 1393, 1403, 1388, 1415, 1402, 1410, 1401, 1410, 1387, 1392, 1379, 1379, 1373, 1386, 1414, 1391, 1574, 1400, 1386, 1395, 1410, 1416, 1416, 1407, 1397, 1393, 1394, 1397, 1401, 1405, 1387, 1398, 1416, 1403, 1395, 1400, 1398, 1405, 1437, 1402, 1393, 1392, 1400, 1403, 1410, 1405, 1400, 1389, 1385, 1388, 1397, 1398, 1638, 1464, 1411, 1408, 1379, 1404, 1382, 1398, 1381, 1384, 1511, 1391, 1376, 1391, 1402, 1385, 1384, 1377, 1400, 1402, 1510, 1393, 1388, 1385, 1394, 1380, 1380, 1389, 1392, 1389, 1389, 1392, 1417, 1371, 1437, 1422],
      "WindowCenter": [588.0, 585.0, 584.0, 584.0, 584.0, 584.0, 584.0, 583.0, 584.0, 584.0, 584.0, 584.0, 584.0, 583.0, 583.0, 584.0, 584.0, 584.0, 584.0, 584.0, 583.0, 584.0, 583.0, 583.0, 583.0, 583.0, 584.0, 584.0, 585.0, 585.0, 585.0, 584.0, 584.0, 584.0, 583.0, 583.0, 583.0, 583.0, 585.0, 584.0, 583.0, 583.0, 582.0, 584.0, 585.0, 585.0, 585.0, 585.0, 585.0, 586.0, 586.0, 586.0, 586.0, 585.0, 584.0, 584.0, 584.0, 585.0, 585.0, 584.0, 584.0, 583.0, 583.0, 584.0, 586.0, 586.0, 586.0, 585.0, 585.0, 585.0, 585.0, 584.0, 584.0, 584.0, 584.0, 584.0, 584.0, 584.0, 584.0, 584.0, 584.0, 584.0, 584.0, 581.0, 581.0, 582.0, 584.0, 585.0, 586.0, 585.0, 585.0, 585.0, 585.0, 586.0, 588.0, 587.0, 587.0, 584.0, 583.0, 583.0, 584.0, 585.0, 584.0, 587.0, 586.0, 586.0, 586.0, 584.0, 584.0, 584.0, 585.0, 585.0, 585.0, 585.0, 586.0, 586.0, 587.0, 585.0, 584.0, 584.0, 584.0, 584.0, 584.0, 585.0, 586.0, 586.0, 586.0, 586.0, 586.0, 585.0, 584.0, 582.0],
      "WindowWidth": [1240.0, 1232.0, 1230.0, 1230.0, 1229.0, 1229.0, 1229.0, 1228.0, 1230.0, 1230.0, 1230.0, 1229.0, 1229.0, 1227.0, 1228.0, 1229.0, 1230.0, 1229.0, 1228.0, 1229.0, 1228.0, 1229.0, 1228.0, 1227.0, 1226.0, 1228.0, 1229.0, 1229.0, 1231.0, 1231.0, 1231.0, 1230.0, 1229.0, 1229.0, 1228.0, 1228.0, 1227.0, 1229.0, 1231.0, 1229.0, 1228.0, 1227.0, 1226.0, 1229.0, 1231.0, 1231.0, 1232.0, 1232.0, 1233.0, 1233.0, 1233.0, 1235.0, 1233.0, 1233.0, 1231.0, 1230.0, 1230.0, 1232.0, 1232.0, 1230.0, 1229.0, 1227.0, 1227.0, 1231.0, 1233.0, 1235.0, 1234.0, 1233.0, 1233.0, 1233.0, 1232.0, 1231.0, 1231.0, 1230.0, 1229.0, 1230.0, 1230.0, 1230.0, 1230.0, 1230.0, 1230.0, 1230.0, 1230.0, 1224.0, 1223.0, 1226.0, 1229.0, 1232.0, 1233.0, 1232.0, 1233.0, 1232.0, 1233.0, 1234.0, 1238.0, 1236.0, 1236.0, 1229.0, 1228.0, 1228.0, 1229.0, 1231.0, 1230.0, 1235.0, 1233.0, 1234.0, 1234.0, 1229.0, 1230.0, 1230.0, 1231.0, 1231.0, 1231.0, 1232.0, 1233.0, 1235.0, 1235.0, 1232.0, 1229.0, 1229.0, 1229.0, 1230.0, 1230.0, 1231.0, 1233.0, 1234.0, 1234.0, 1233.0, 1234.0, 1231.0, 1229.0, 1226.0]
    },
    "slices": {}
  }
}