{
  "AcquisitionMatrixPE": 72,
  "AcquisitionNumber": 1,
  "AcquisitionTime": "20:12:58.460000",
  "BandwidthPerPixelPhaseEncode": 24.366,
  "BaseResolution": 72,
  "BodyPartExamined": "BRAIN",
  "CoilCombinationMethod": "Sum of Squares",
  "ConsistencyInfo": "N4_VE11C_LATEST_20160120",
  "ConversionSoftware": "dcm2niix",
  "ConversionSoftwareVersion": "v1.0.20220720",
  "DerivedVendorReportedEchoSpacing": 0.000570011,
  "DeviceSerialNumber": "45219",
  "DwellTime": 3.5e-06,
  "EchoTime": 0.03,
  "EchoTrainLength": 72,
  "EffectiveEchoSpacing": 0.000570011,
  "FlipAngle": 80,
  "HeudiconvVersion": "1.1.6",
  "ImageOrientationPatientDICOM": [0.999903, 0.000438571, 0.013955, -2.85378e-08, 0.999507, -0.0314101],
  "ImageOrientationText": "Tra>Cor(-1.8)>Sag(0.8)",
  "ImageType": [
    "ORIGINAL",
    "PRIMARY",
    "M",
    "ND",
    "NORM",
    "MOSAIC"
],
  "ImagingFrequency": 123.182,
  "InPlanePhaseEncodingDirectionDICOM": "COL",
  "InstitutionAddress": "First Avenue 660,New York,NYC,US,10016",
  "InstitutionName": "NYU LANGONE CBI",
  "InstitutionalDepartmentName": "Department",
  "MRAcquisitionType": "2D",
  "MagneticFieldStrength": 3,
  "Manufacturer": "Siemens",
  "ManufacturersModelName": "Skyra",
  "MatrixCoilMode": "SENSE",
  "Modality": "MR",
  "NonlinearGradientCorrection": false,
  "PartialFourier": 1,
  "PatientPosition": "HFS",
  "PercentPhaseFOV": 100,
  "PercentSampling": 100,
  "PhaseEncodingDirection": "j-",
  "PhaseEncodingSteps": 72,
  "PhaseResolution": 1,
  "PixelBandwidth": 1985,
  "ProcedureStepDescription": "MRI BRAIN WITHOUT IV CONTRAST",
  "ProtocolName": "REST_2",
  "PulseSequenceDetails": "%SiemensSeq%\\ep2d_bold",
  "ReceiveCoilActiveElements": "HE1-4",
  "ReceiveCoilName": "HeadNeck_20",
  "ReconMatrixPE": 72,
  "RepetitionTime": 2.5,
  "SAR": 0.0952026,
  "ScanOptions": "FS",
  "ScanningSequence": "EP",
  "SequenceName": "*epfid2d1_72",
  "SequenceVariant": "SK",
  "SeriesDescription": "REST_2",
  "SeriesNumber": 8,
  "ShimSetting": [-912, -6935, 5043, 405, -164, 128, 335, -183],
  "SliceThickness": 3,
  "SliceTiming": [1.24, 0, 1.305, 0.065, 1.37, 0.13, 1.435, 0.195, 1.5025, 0.2625, 1.5675, 0.3275, 1.6325, 0.3925, 1.6975, 0.4575, 1.7625, 0.5225, 1.8275, 0.5875, 1.8925, 0.6525, 1.9575, 0.7175, 2.0225, 0.7825, 2.0875, 0.8475, 2.155, 0.915, 2.22, 0.98, 2.285, 1.045, 2.35, 1.11, 2.415, 1.175],
  "SoftwareVersions": "syngo MR E11",
  "SpacingBetweenSlices": 3,
  "StationName": "MRC45219",
  "TaskName": "rest",
  "TotalReadoutTime": 0.0404708,
  "TxRefAmp": 453.568,
  "dcmmeta_affine": [
    [-2.9997076988220215, -8.561339370771748e-08, 0.04188552498817444, 106.54517364501953],
    [-0.0013157131616026163, 2.9985196590423584, -0.09422105550765991, -106.02365112304688],
    [0.04186485335230827, 0.09423023462295532, 2.998227596282959, -55.10213851928711],
    [0.0, 0.0, 0.0, 1.0]
],
  "dcmmeta_reorient_transform": [
    [0.0, -1.0, 0.0, 71.0],
    [1.0, 0.0, 0.0, 0.0],
    [0.0, 0.0, 1.0, 0.0],
    [0.0, 0.0, 0.0, 1.0]
],
  "dcmmeta_shape": [72, 72, 38, 122],
  "dcmmeta_slice_dim": 2,
  "dcmmeta_version": 0.6,
  "global": {
    "const": {
      "AcquisitionMatrix": [72, 0, 0, 72],
      "AngioFlag": "N",
      "BitsAllocated": 16,
      "BitsStored": 12,
      "BodyPartExamined": "BRAIN",
      "Columns": 504,
      "CountryOfResidence": "United States of America [1]",
      "EchoNumbers": 1,
      "EchoTime": 30.0,
      "EchoTrainLength": 72,
      "FlipAngle": 80.0,
      "HighBit": 11,
      "ImageOrientationPatient": [0.99990252874876, 0.0004385710467, 0.01395495099525, -2.8537797e-08, 0.99950658173891, -0.0314100789653],
      "ImagePositionPatient": [-754.48198605087, -754.83570678392, -37.100866919173],
      "ImageType": [
        "ORIGINAL",
        "PRIMARY",
        "M",
        "ND",
        "NORM",
        "MOSAIC"
],
      "ImagedNucleus": "1H",
      "ImagingFrequency": 123.181887,
      "InPlanePhaseEncodingDirection": "COL",
      "MRAcquisitionType": "2D",
      "MagneticFieldStrength": 3.0,
      "Manufacturer": "SIEMENS",
      "ManufacturerModelName": "Skyra",
      "Modality": "MR",
      "NumberOfAverages": 1.0,
      "NumberOfPhaseEncodingSteps": 72,
      "PercentPhaseFieldOfView": 100.0,
      "PercentSampling": 100.0,
      "PerformedProcedureStepStartTime": "195856.088000",
      "PhotometricInterpretation": "MONOCHROME2",
      "PixelBandwidth": 1985.0,
      "PixelRepresentation": 0,
      "PixelSpacing": [3.0, 3.0],
      "PregnancyStatus": 4,
      "ProcedureCodeSequence": [
        {
          "CodeMeaning": "MRI BRAIN WITHOUT IV CONTRAST",
          "CodeValue": "IMG269",
          "CodingSchemeDesignator": "L"
        }
],
      "ProtocolName": "REST_2",
      "RepetitionTime": 2500.0,
      "RequestAttributesSequence": [
        {
          "RequestedProcedureID": "353073278",
          "ScheduledProcedureStepDescription": "MRI BRAIN WITHOUT IV CONTRAST",
          "ScheduledProcedureStepID": "E10569656",
          "ScheduledProtocolCodeSequence": [
            {
              "CodeMeaning": "MRI BRAIN WITHOUT IV CONTRAST",
              "CodeValue": "651061",
              "CodingSchemeDesignator": "L"
            }
]
        }
],
      "RequestedProcedureCodeSequence": [
        {
          "CodeMeaning": "MRI BRAIN WITHOUT IV CONTRAST",
          "CodeValue": "IMG269",
          "CodingSchemeDesignator": "L"
        }
],
      "Rows": 504,
      "SAR": 0.09520255226856,
      "SamplesPerPixel": 1,
      "ScanOptions": "FS",
      "ScanningSequence": "EP",
      "SequenceName": "*epfid2d1_72",
      "SequenceVariant": "SK",
      "SeriesDescription": "REST_2",
      "SeriesNumber": 8,
      "SeriesTime": "201405.713000",
      "SliceLocation": -50.252126591109,
      "SliceThickness": 3.0,
      "SmallestImagePixelValue": 0,
      "SmokingStatus": "UNKNOWN",
      "SoftwareVersions": "syngo MR E11",
      "SpacingBetweenSlices": 3.0000000304297,
      "SpecificCharacterSet": "ISO_IR 100",
      "StudyTime": "195855.923000",
      "TransmitCoilName": "Body",
      "VariableFlipAngleFlag": "N",
      "WindowCenterWidthExplanation": "Algo1",
      "dBdt": 0.0},
    "slices": {}
  },
  "time": {
    "samples": {
      "AcquisitionNumber": [1, 2, 3, 4, 5, 6, 7, 8, 9, 10, 11, 12, 13, 14, 15, 16, 17, 18, 19, 20, 21, 22, 23, 24, 25, 26, 27, 28, 29, 30, 31, 32, 33, 34, 35, 36, 37, 38, 39, 40, 41, 42, 43, 44, 45, 46, 47, 48, 49, 50, 51, 52, 53, 54, 55, 56, 57, 58, 59, 60, 61, 62, 63, 64, 65, 66, 67, 68, 69, 70, 71, 72, 73, 74, 75, 76, 77, 78, 79, 80, 81, 82, 83, 84, 85, 86, 87, 88, 89, 90, 91, 92, 93, 94, 95, 96, 97, 98, 99, 100, 101, 102, 103, 104, 105, 106, 107, 108, 109, 110, 111, 112, 113, 114, 115, 116, 117, 118, 119, 120, 121, 122],
      "AcquisitionTime": ["201258.460000", "201300.960000", "201303.460000", "201305.960000", "201308.460000", "201310.960000", "201313.460000", "201315.960000", "201318.460000", "201320.960000", "201323.460000", "201325.960000", "201328.460000", "201330.960000", "201333.460000", "201335.960000", "201338.460000", "201340.960000", "201343.460000", "201345.960000", "201348.460000", "201350.960000", "201353.460000", "201355.960000", "201358.460000", "201400.960000", "201403.460000", "201405.960000", "201408.460000", "201410.960000", "201413.460000", "201415.960000", "201418.460000", "201420.960000", "201423.460000", "201425.960000", "201428.460000", "201430.960000", "201433.460000", "201435.960000", "201438.460000", "201440.960000", "201443.460000", "201445.960000", "201448.460000", "201450.960000", "201453.460000", "201455.960000", "201458.460000", "201500.960000", "201503.460000", "201505.960000", "201508.460000", "201510.960000", "201513.460000", "201515.960000", "201518.460000", "201520.960000", "201523.460000", "201525.960000", "201528.460000", "201530.960000", "201533.460000", "201535.960000", "201538.460000", "201540.960000", "201543.460000", "201545.960000", "201548.460000", "201550.960000", "201553.460000", "201555.960000", "201558.460000", "201600.960000", "201603.460000", "201605.960000", "201608.460000", "201610.960000", "201613.460000", "201615.960000", "201618.460000", "201620.960000", "201623.460000", "201625.960000", "201628.460000", "201630.960000", "201633.460000", "201635.960000", "201638.460000", "201640.960000", "201643.460000", "201645.960000", "201648.460000", "201650.960000", "201653.460000", "201655.960000", "201658.460000", "201700.960000", "201703.460000", "201705.960000", "201708.460000", "201710.960000", "201713.460000", "201715.960000", "201718.460000", "201720.960000", "201723.460000", "201725.960000", "201728.460000", "201730.960000", "201733.460000", "201735.960000", "201738.460000", "201740.960000", "201743.460000", "201745.960000", "201748.460000", "201750.960000", "201753.460000", "201755.960000", "201758.460000", "201800.960000"],
      "ContentTime": ["201405.716000", "201405.720000", "201405.722000", "201405.725000", "201405.728000", "201405.730000", "201405.733000", "201405.736000", "201405.738000", "201405.741000", "201405.744000", "201405.746000", "201405.749000", "201405.757000", "201405.760000", "201405.762000", "201405.765000", "201405.768000", "201405.770000", "201405.773000", "201405.776000", "201405.778000", "201405.781000", "201405.783000", "201405.786000", "201405.789000", "201505.711000", "201505.713000", "201505.716000", "201505.719000", "201505.722000", "201505.724000", "201505.727000", "201505.729000", "201505.732000", "201505.735000", "201505.738000", "201505.740000", "201505.743000", "201505.745000", "201505.748000", "201505.751000", "201505.753000", "201505.756000", "201505.759000", "201505.761000", "201505.764000", "201505.767000", "201505.770000", "201505.772000", "201605.711000", "201605.713000", "201605.716000", "201605.719000", "201605.722000", "201605.724000", "201605.727000", "201605.730000", "201605.732000", "201605.735000", "201605.738000", "201605.740000", "201605.743000", "201605.746000", "201605.748000", "201605.751000", "201605.754000", "201605.756000", "201605.759000", "201605.762000", "201605.765000", "201605.767000", "201605.770000", "201605.772000", "201705.711000", "201705.713000", "201705.716000", "201705.719000", "201705.722000", "201705.724000", "201705.727000", "201705.730000", "201705.732000", "201705.735000", "201705.738000", "201705.740000", "201705.743000", "201705.745000", "201705.748000", "201705.751000", "201705.753000", "201705.756000", "201705.759000", "201705.761000", "201705.764000", "201705.767000", "201705.776000", "201705.778000", "201803.637000", "201803.640000", "201803.643000", "201803.646000", "201803.648000", "201803.651000", "201803.654000", "201803.657000", "201803.659000", "201803.662000", "201803.665000", "201803.668000", "201803.676000", "201803.679000", "201803.682000", "201803.685000", "201803.688000", "201803.695000", "201803.701000", "201803.705000", "201803.708000", "201803.712000", "201803.716000", "201803.720000"],
      "InstanceCreationTime": ["201405.716000", "201405.720000", "201405.722000", "201405.725000", "201405.728000", "201405.730000", "201405.733000", "201405.736000", "201405.738000", "201405.741000", "201405.744000", "201405.746000", "201405.749000", "201405.757000", "201405.760000", "201405.762000", "201405.765000", "201405.768000", "201405.770000", "201405.773000", "201405.776000", "201405.778000", "201405.781000", "201405.783000", "201405.786000", "201405.789000", "201505.711000", "201505.713000", "201505.716000", "201505.719000", "201505.722000", "201505.724000", "201505.727000", "201505.729000", "201505.732000", "201505.735000", "201505.738000", "201505.740000", "201505.743000", "201505.745000", "201505.748000", "201505.751000", "201505.753000", "201505.756000", "201505.759000", "201505.761000", "201505.764000", "201505.767000", "201505.770000", "201505.772000", "201605.711000", "201605.713000", "201605.716000", "201605.719000", "201605.722000", "201605.724000", "201605.727000", "201605.730000", "201605.732000", "201605.735000", "201605.738000", "201605.740000", "201605.743000", "201605.746000", "201605.748000", "201605.751000", "201605.754000", "201605.756000", "201605.759000", "201605.762000", "201605.765000", "201605.767000", "201605.770000", "201605.772000", "201705.711000", "201705.713000", "201705.716000", "201705.719000", "201705.722000", "201705.724000", "201705.727000", "201705.730000", "201705.732000", "201705.735000", "201705.738000", "201705.740000", "201705.743000", "201705.745000", "201705.748000", "201705.751000", "201705.753000", "201705.756000", "201705.759000", "201705.761000", "201705.764000", "201705.767000", "201705.776000", "201705.778000", "201803.637000", "201803.640000", "201803.643000", "201803.646000", "201803.648000", "201803.651000", "201803.654000", "201803.657000", "201803.659000", "201803.662000", "201803.665000", "201803.668000", "201803.676000", "201803.679000", "201803.682000", "201803.685000", "201803.688000", "201803.695000", "201803.701000", "201803.705000", "201803.708000", "201803.712000", "201803.716000", "201803.720000"],
      "InstanceNumber": [1, 2, 3, 4, 5, 6, 7, 8, 9, 10, 11, 12, 13, 14, 15, 16, 17, 18, 19, 20, 21, 22, 23, 24, 25, 26, 27, 28, 29, 30, 31, 32, 33, 34, 35, 36, 37, 38, 39, 40, 41, 42, 43, 44, 45, 46, 47, 48, 49, 50, 51, 52, 53, 54, 55, 56, 57, 58, 59, 60, 61, 62, 63, 64, 65, 66, 67, 68, 69, 70, 71, 72, 73, 74, 75, 76, 77, 78, 79, 80, 81, 82, 83, 84, 85, 86, 87, 88, 89, 90, 91, 92, 93, 94, 95, 96, 97, 98, 99, 100, 101, 102, 103, 104, 105, 106, 107, 108, 109, 110, 111, 112, 113, 114, 115, 116, 117, 118, 119, 120, 121, 122],
      "LargestImagePixelValue": [2269, 2585, 2573, 2094, 2045, 2164, 2367, 1976, 1987, 2034, 2154, 2165, 1957, 2132, 2187, 2228, 1980, 1998, 2243, 2084, 1952, 1998, 1989, 2076, 2014, 1934, 2080, 2061, 2218, 1976, 1961, 2000, 2029, 1963, 2382, 2220, 2313, 1960, 2494, 2368, 2047, 2188, 2210, 2161, 1968, 1992, 1969, 2081, 2130, 2293, 2110, 1927, 1936, 1967, 2157, 2122, 2294, 1979, 1981, 2238, 2324, 2019, 2191, 1991, 1953, 2116, 2345, 2268, 2048, 1941, 1918, 1931, 2076, 2414, 2044, 2044, 2485, 2370, 2123, 1940, 1918, 1931, 1949, 1979, 1950, 2178, 2172, 1888, 1837, 1868, 2540, 2284, 1980, 1877, 1849, 1828, 1920, 1966, 1990, 2379, 2270, 2070, 2168, 2202, 1968, 1893, 1892, 1974, 2046, 2058, 2048, 2671, 1984, 1976, 2166, 2314, 1901, 1895, 2024, 2205, 1942, 1900],
      "WindowCenter": [741.0, 739.0, 739.0, 738.0, 738.0, 738.0, 738.0, 736.0, 737.0, 737.0, 737.0, 738.0, 737.0, 737.0, 737.0, 738.0, 737.0, 737.0, 737.0, 738.0, 737.0, 736.0, 737.0, 737.0, 737.0, 737.0, 738.0, 738.0, 738.0, 737.0, 737.0, 737.0, 737.0, 737.0, 738.0, 737.0, 740.0, 737.0, 738.0, 737.0, 736.0, 736.0, 736.0, 736.0, 735.0, 736.0, 736.0, 737.0, 738.0, 739.0, 740.0, 739.0, 737.0, 737.0, 738.0, 737.0, 738.0, 737.0, 737.0, 738.0, 738.0, 737.0, 737.0, 736.0, 736.0, 736.0, 737.0, 738.0, 737.0, 737.0, 737.0, 737.0, 737.0, 737.0, 736.0, 737.0, 738.0, 737.0, 737.0, 737.0, 736.0, 736.0, 736.0, 737.0, 737.0, 738.0, 737.0, 736.0, 736.0, 736.0, 738.0, 737.0, 736.0, 736.0, 736.0, 736.0, 737.0, 736.0, 737.0, 737.0, 736.0, 735.0, 736.0, 737.0, 736.0, 736.0, 736.0, 736.0, 735.0, 736.0, 736.0, 737.0, 735.0, 735.0, 736.0, 737.0, 736.0, 736.0, 736.0, 737.0, 736.0, 736.0],
      "WindowWidth": [1591.0, 1586.0, 1584.0, 1582.0, 1581.0, 1582.0, 1582.0, 1578.0, 1579.0, 1579.0, 1580.0, 1582.0, 1580.0, 1579.0, 1580.0, 1583.0, 1580.0, 1580.0, 1581.0, 1581.0, 1579.0, 1578.0, 1579.0, 1580.0, 1581.0, 1580.0, 1581.0, 1581.0, 1583.0, 1581.0, 1579.0, 1578.0, 1580.0, 1580.0, 1582.0, 1581.0, 1587.0, 1580.0, 1582.0, 1580.0, 1577.0, 1578.0, 1578.0, 1577.0, 1575.0, 1576.0, 1577.0, 1580.0, 1582.0, 1586.0, 1587.0, 1584.0, 1580.0, 1579.0, 1581.0, 1580.0, 1582.0, 1580.0, 1578.0, 1581.0, 1582.0, 1579.0, 1579.0, 1576.0, 1577.0, 1578.0, 1580.0, 1582.0, 1580.0, 1578.0, 1579.0, 1581.0, 1580.0, 1580.0, 1578.0, 1580.0, 1581.0, 1580.0, 1579.0, 1579.0, 1577.0, 1577.0, 1578.0, 1579.0, 1580.0, 1581.0, 1580.0, 1576.0, 1576.0, 1576.0, 1582.0, 1579.0, 1577.0, 1576.0, 1576.0, 1577.0, 1578.0, 1578.0, 1578.0, 1579.0, 1577.0, 1575.0, 1577.0, 1578.0, 1576.0, 1576.0, 1577.0, 1576.0, 1575.0, 1577.0, 1576.0, 1580.0, 1573.0, 1575.0, 1576.0, 1579.0, 1576.0, 1576.0, 1576.0, 1579.0, 1578.0, 1577.0]
    },
    "slices": {}
  }
}