{
  "AcquisitionMatrixPE": 72,
  "AcquisitionNumber": 1,
  "AcquisitionTime": "19:39:43.215000",
  "BodyPartExamined": "BRAIN",
  "ConversionSoftware": "dcm2niix",
  "ConversionSoftwareVersion": "v1.0.20220720",
  "DeviceSerialNumber": "67041",
  "EchoNumber": 2,
  "EchoTime": 0.00738,
  "EchoTime1": 0.00492,
  "EchoTime2": 0.00738,
  "FlipAngle": 60,
  "HeudiconvVersion": "1.1.6",
  "ImageOrientationPatientDICOM": [0.999994, 0.00349065, 0, -0.00349065, 0.999994, 0],
  "ImageType": [
    "ORIGINAL",
    "PRIMARY",
    "P",
    "ND",
    "PHASE"
],
  "ImagingFrequency": 123.262,
  "InPlanePhaseEncodingDirectionDICOM": "ROW",
  "InstitutionAddress": "First Ave. 660,New York,New York,US,10021",
  "InstitutionName": "NYU Langone CBI",
  "InstitutionalDepartmentName": "Department",
  "MRAcquisitionType": "2D",
  "MagneticFieldStrength": 3,
  "Manufacturer": "Siemens",
  "ManufacturersModelName": "DicomCleaner",
  "Modality": "MR",
  "MultibandAccelerationFactor": 2,
  "NonlinearGradientCorrection": false,
  "PatientPosition": "HFS",
  "PercentPhaseFOV": 100,
  "PercentSampling": 100,
  "PhaseEncodingAxis": "i",
  "PhaseEncodingSteps": 72,
  "PixelBandwidth": 290,
  "ProcedureStepDescription": "MRI BRAIN WITHOUT IV CONTRAST",
  "ProtocolName": "gre_fm_bold",
  "ReconMatrixPE": 72,
  "RepetitionTime": 0.444,
  "SAR": 0.182625,
  "ScanningSequence": "GR",
  "SequenceName": "*fm2d2r",
  "SequenceVariant": "SP",
  "SeriesDescription": "gre_fm_bold",
  "SeriesNumber": 4,
  "SliceThickness": 3,
  "SliceTiming": [0.21875, 0, 0.21875, 0, 0.23438, 0.01562, 0.25, 0.03125, 0.26562, 0.03125, 0.26562, 0.04688, 0.28125, 0.0625, 0.29688, 0.07812, 0.3125, 0.07812, 0.3125, 0.09375, 0.32812, 0.10938, 0.34375, 0.125, 0.35938, 0.125, 0.35938, 0.14062, 0.375, 0.15625, 0.39062, 0.17188, 0.40625, 0.1875, 0.40625, 0.1875, 0.42188, 0.20312],
  "SoftwareVersions": "Tue Oct 22 14:01:57 EDT 2019",
  "SpacingBetweenSlices": 3,
  "StationName": "CBIMRIMGRPC1_111",
  "dcmmeta_affine": [
    [-2.999981641769409, -0.010471954941749573, 0.0, 109.43443298339844],
    [-0.010471954941749573, 2.999981641769409, 0.0, -83.98452758789062],
    [0.0, 0.0, 3.0, -33.981300354003906],
    [0.0, 0.0, 0.0, 1.0]
],
  "dcmmeta_reorient_transform": [
    [0.0, -1.0, 0.0, 71.0],
    [1.0, 0.0, 0.0, 0.0],
    [0.0, 0.0, -1.0, 37.0],
    [0.0, 0.0, 0.0, 1.0]
],
  "dcmmeta_shape": [72, 72, 38],
  "dcmmeta_slice_dim": 2,
  "dcmmeta_version": 0.6,
  "global": {
    "const": {
      "AcquisitionMatrix": [0, 72, 72, 0],
      "AcquisitionNumber": 1,
      "AngioFlag": "N",
      "BitsAllocated": 16,
      "BitsStored": 12,
      "BodyPartExamined": "BRAIN",
      "Columns": 72,
      "DeidentificationMethod": [
        "Deidentified",
        "Descriptors retained",
        "Patient Characteristics retained",
        "Device identity retained",
        "Institution identity retained",
        "Dates retained",
        "Structured content retained",
        "Unsafe private removed",
        "UIDs remapped"
],
      "DeidentificationMethodCodeSequence": [
        {
          "CodeMeaning": "Basic Application Confidentiality Profile",
          "CodeValue": "113100",
          "CodingSchemeDesignator": "DCM"
        },
        {
          "CodeMeaning": "Retain all descriptors unchanged",
          "CodeValue": "210005",
          "CodingSchemeDesignator": "99PMP"
        },
        {
          "CodeMeaning": "Retain Patient Characteristics Option",
          "CodeValue": "113108",
          "CodingSchemeDesignator": "DCM"
        },
        {
          "CodeMeaning": "Retain Device Identity Option",
          "CodeValue": "113109",
          "CodingSchemeDesignator": "DCM"
        },
        {
          "CodeMeaning": "Retain Institution Identity Option",
          "CodeValue": "113112",
          "CodingSchemeDesignator": "DCM"
        },
        {
          "CodeMeaning": "Retain Longitudinal Temporal Information Full Dates Option",
          "CodeValue": "113106",
          "CodingSchemeDesignator": "DCM"
        },
        {
          "CodeMeaning": "Retain all structured content unchanged",
          "CodeValue": "210011",
          "CodingSchemeDesignator": "99PMP"
        },
        {
          "CodeMeaning": "Retain Safe Private Option",
          "CodeValue": "113111",
          "CodingSchemeDesignator": "DCM"
        },
        {
          "CodeMeaning": "Remap UIDs",
          "CodeValue": "210001",
          "CodingSchemeDesignator": "99PMP"
        }
],
      "EchoNumbers": 2,
      "EchoTime": 7.38,
      "EchoTrainLength": 0,
      "FlipAngle": 60.0,
      "HighBit": 11,
      "ImageOrientationPatient": [0.99999390765706, 0.00349065162353, 0.0, -0.0034906516235, 0.99999390765706, 0.0],
      "ImageType": [
        "ORIGINAL",
        "PRIMARY",
        "P",
        "ND"
],
      "ImagedNucleus": "1H",
      "ImagingFrequency": 123.261817,
      "InPlanePhaseEncodingDirection": "ROW",
      "MRAcquisitionType": "2D",
      "MagneticFieldStrength": 3.0,
      "Manufacturer": "SIEMENS",
      "ManufacturerModelName": "Prisma_fit",
      "Modality": "MR",
      "NumberOfAverages": 1.0,
      "NumberOfPhaseEncodingSteps": 72,
      "PercentPhaseFieldOfView": 100.0,
      "PercentSampling": 100.0,
      "PerformedProcedureStepStartTime": "193022.595000",
      "PhotometricInterpretation": "MONOCHROME2",
      "PixelBandwidth": 290.0,
      "PixelRepresentation": 0,
      "PixelSpacing": [3.0, 3.0],
      "PregnancyStatus": 4,
      "ProcedureCodeSequence": [
        {
          "CodeMeaning": "MRI BRAIN WITHOUT IV CONTRAST",
          "CodeValue": "IMG269",
          "CodingSchemeDesignator": "L"
        }
],
      "ProtocolName": "gre_fm_bold",
      "RepetitionTime": 444.0,
      "RequestedProcedureCodeSequence": [
        {
          "CodeMeaning": "MRI BRAIN WITHOUT IV CONTRAST",
          "CodeValue": "IMG269",
          "CodingSchemeDesignator": "L"
        }
],
      "RescaleIntercept": -4096.0,
      "RescaleSlope": 2.0,
      "RescaleType": "US",
      "RetrieveAETitle": "ODD",
      "Rows": 72,
      "SAR": 0.18262522689784,
      "SamplesPerPixel": 1,
      "ScanningSequence": "GR",
      "SequenceName": "*fm2d2r",
      "SequenceVariant": "SP",
      "SeriesDescription": "gre_fm_bold",
      "SeriesNumber": 4,
      "SeriesTime": "194048.056000",
      "SliceThickness": 3.0,
      "SmokingStatus": "UNKNOWN",
      "SoftwareVersions": "syngo MR E11",
      "SpacingBetweenSlices": 3.0,
      "StudyTime": "193022.296000",
      "TransmitCoilName": "Body",
      "VariableFlipAngleFlag": "N",
      "WindowCenterWidthExplanation": "Algo1",
      "dBdt": 0.0},
    "slices": {
      "AcquisitionTime": ["193943.215000", "193942.992500", "193943.225000", "193943.002500", "193943.237500", "193943.015000", "193943.250000", "193943.027500", "193943.260000", "193943.037500", "193943.272500", "193943.050000", "193943.285000", "193943.062500", "193943.295000", "193943.075000", "193943.307500", "193943.085000", "193943.320000", "193943.097500", "193943.330000", "193943.110000", "193943.342500", "193943.120000", "193943.355000", "193943.132500", "193943.365000", "193943.145000", "193943.377500", "193943.155000", "193943.390000", "193943.167500", "193943.400000", "193943.180000", "193943.412500", "193943.190000", "193943.425000", "193943.202500"],
      "ContentTime": ["194048.119000", "194048.058000", "194048.121000", "194048.064000", "194048.123000", "194048.067000", "194048.125000", "194048.070000", "194048.127000", "194048.072000", "194048.137000", "194048.081000", "194048.140000", "194048.083000", "194048.142000", "194048.085000", "194048.144000", "194048.087000", "194048.146000", "194048.098000", "194048.148000", "194048.100000", "194048.150000", "194048.102000", "194048.152000", "194048.105000", "194048.154000", "194048.107000", "194048.156000", "194048.109000", "194048.162000", "194048.111000", "194048.165000", "194048.113000", "194048.167000", "194048.115000", "194048.169000", "194048.117000"],
      "ContributingEquipmentSequence": [
        [
          {
            "ContributionDateTime": "20220714150000.091-0400",
            "ContributionDescription": "Cleaned",
            "Manufacturer": "PixelMed",
            "ManufacturerModelName": "DicomCleaner",
            "PurposeOfReferenceCodeSequence": [
              {
                "CodeMeaning": "De-identifying Equipment",
                "CodeValue": "109104",
                "CodingSchemeDesignator": "DCM"
              }
],
            "SoftwareVersions": "Tue Oct 22 14:01:57 EDT 2019",
            "StationName": "CBIMRIMGRPC1_111"
          }
],
        [
          {
            "ContributionDateTime": "20220714150000.096-0400",
            "ContributionDescription": "Cleaned",
            "Manufacturer": "PixelMed",
            "ManufacturerModelName": "DicomCleaner",
            "PurposeOfReferenceCodeSequence": [
              {
                "CodeMeaning": "De-identifying Equipment",
                "CodeValue": "109104",
                "CodingSchemeDesignator": "DCM"
              }
],
            "SoftwareVersions": "Tue Oct 22 14:01:57 EDT 2019",
            "StationName": "CBIMRIMGRPC1_111"
          }
],
        [
          {
            "ContributionDateTime": "20220714150000.101-0400",
            "ContributionDescription": "Cleaned",
            "Manufacturer": "PixelMed",
            "ManufacturerModelName": "DicomCleaner",
            "PurposeOfReferenceCodeSequence": [
              {
                "CodeMeaning": "De-identifying Equipment",
                "CodeValue": "109104",
                "CodingSchemeDesignator": "DCM"
              }
],
            "SoftwareVersions": "Tue Oct 22 14:01:57 EDT 2019",
            "StationName": "CBIMRIMGRPC1_111"
          }
],
        [
          {
            "ContributionDateTime": "20220714150000.106-0400",
            "ContributionDescription": "Cleaned",
            "Manufacturer": "PixelMed",
            "ManufacturerModelName": "DicomCleaner",
            "PurposeOfReferenceCodeSequence": [
              {
                "CodeMeaning": "De-identifying Equipment",
                "CodeValue": "109104",
                "CodingSchemeDesignator": "DCM"
              }
],
            "SoftwareVersions": "Tue Oct 22 14:01:57 EDT 2019",
            "StationName": "CBIMRIMGRPC1_111"
          }
],
        [
          {
            "ContributionDateTime": "20220714150000.110-0400",
            "ContributionDescription": "Cleaned",
            "Manufacturer": "PixelMed",
            "ManufacturerModelName": "DicomCleaner",
            "PurposeOfReferenceCodeSequence": [
              {
                "CodeMeaning": "De-identifying Equipment",
                "CodeValue": "109104",
                "CodingSchemeDesignator": "DCM"
              }
],
            "SoftwareVersions": "Tue Oct 22 14:01:57 EDT 2019",
            "StationName": "CBIMRIMGRPC1_111"
          }
],
        [
          {
            "ContributionDateTime": "20220714150000.114-0400",
            "ContributionDescription": "Cleaned",
            "Manufacturer": "PixelMed",
            "ManufacturerModelName": "DicomCleaner",
            "PurposeOfReferenceCodeSequence": [
              {
                "CodeMeaning": "De-identifying Equipment",
                "CodeValue": "109104",
                "CodingSchemeDesignator": "DCM"
              }
],
            "SoftwareVersions": "Tue Oct 22 14:01:57 EDT 2019",
            "StationName": "CBIMRIMGRPC1_111"
          }
],
        [
          {
            "ContributionDateTime": "20220714150000.119-0400",
            "ContributionDescription": "Cleaned",
            "Manufacturer": "PixelMed",
            "ManufacturerModelName": "DicomCleaner",
            "PurposeOfReferenceCodeSequence": [
              {
                "CodeMeaning": "De-identifying Equipment",
                "CodeValue": "109104",
                "CodingSchemeDesignator": "DCM"
              }
],
            "SoftwareVersions": "Tue Oct 22 14:01:57 EDT 2019",
            "StationName": "CBIMRIMGRPC1_111"
          }
],
        [
          {
            "ContributionDateTime": "20220714150000.124-0400",
            "ContributionDescription": "Cleaned",
            "Manufacturer": "PixelMed",
            "ManufacturerModelName": "DicomCleaner",
            "PurposeOfReferenceCodeSequence": [
              {
                "CodeMeaning": "De-identifying Equipment",
                "CodeValue": "109104",
                "CodingSchemeDesignator": "DCM"
              }
],
            "SoftwareVersions": "Tue Oct 22 14:01:57 EDT 2019",
            "StationName": "CBIMRIMGRPC1_111"
          }
],
        [
          {
            "ContributionDateTime": "20220714150000.129-0400",
            "ContributionDescription": "Cleaned",
            "Manufacturer": "PixelMed",
            "ManufacturerModelName": "DicomCleaner",
            "PurposeOfReferenceCodeSequence": [
              {
                "CodeMeaning": "De-identifying Equipment",
                "CodeValue": "109104",
                "CodingSchemeDesignator": "DCM"
              }
],
            "SoftwareVersions": "Tue Oct 22 14:01:57 EDT 2019",
            "StationName": "CBIMRIMGRPC1_111"
          }
],
        [
          {
            "ContributionDateTime": "20220714150000.133-0400",
            "ContributionDescription": "Cleaned",
            "Manufacturer": "PixelMed",
            "ManufacturerModelName": "DicomCleaner",
            "PurposeOfReferenceCodeSequence": [
              {
                "CodeMeaning": "De-identifying Equipment",
                "CodeValue": "109104",
                "CodingSchemeDesignator": "DCM"
              }
],
            "SoftwareVersions": "Tue Oct 22 14:01:57 EDT 2019",
            "StationName": "CBIMRIMGRPC1_111"
          }
],
        [
          {
            "ContributionDateTime": "20220714150000.138-0400",
            "ContributionDescription": "Cleaned",
            "Manufacturer": "PixelMed",
            "ManufacturerModelName": "DicomCleaner",
            "PurposeOfReferenceCodeSequence": [
              {
                "CodeMeaning": "De-identifying Equipment",
                "CodeValue": "109104",
                "CodingSchemeDesignator": "DCM"
              }
],
            "SoftwareVersions": "Tue Oct 22 14:01:57 EDT 2019",
            "StationName": "CBIMRIMGRPC1_111"
          }
],
        [
          {
            "ContributionDateTime": "20220714150000.142-0400",
            "ContributionDescription": "Cleaned",
            "Manufacturer": "PixelMed",
            "ManufacturerModelName": "DicomCleaner",
            "PurposeOfReferenceCodeSequence": [
              {
                "CodeMeaning": "De-identifying Equipment",
                "CodeValue": "109104",
                "CodingSchemeDesignator": "DCM"
              }
],
            "SoftwareVersions": "Tue Oct 22 14:01:57 EDT 2019",
            "StationName": "CBIMRIMGRPC1_111"
          }
],
        [
          {
            "ContributionDateTime": "20220714150000.146-0400",
            "ContributionDescription": "Cleaned",
            "Manufacturer": "PixelMed",
            "ManufacturerModelName": "DicomCleaner",
            "PurposeOfReferenceCodeSequence": [
              {
                "CodeMeaning": "De-identifying Equipment",
                "CodeValue": "109104",
                "CodingSchemeDesignator": "DCM"
              }
],
            "SoftwareVersions": "Tue Oct 22 14:01:57 EDT 2019",
            "StationName": "CBIMRIMGRPC1_111"
          }
],
        [
          {
            "ContributionDateTime": "20220714150000.150-0400",
            "ContributionDescription": "Cleaned",
            "Manufacturer": "PixelMed",
            "ManufacturerModelName": "DicomCleaner",
            "PurposeOfReferenceCodeSequence": [
              {
                "CodeMeaning": "De-identifying Equipment",
                "CodeValue": "109104",
                "CodingSchemeDesignator": "DCM"
              }
],
            "SoftwareVersions": "Tue Oct 22 14:01:57 EDT 2019",
            "StationName": "CBIMRIMGRPC1_111"
          }
],
        [
          {
            "ContributionDateTime": "20220714150000.155-0400",
            "ContributionDescription": "Cleaned",
            "Manufacturer": "PixelMed",
            "ManufacturerModelName": "DicomCleaner",
            "PurposeOfReferenceCodeSequence": [
              {
                "CodeMeaning": "De-identifying Equipment",
                "CodeValue": "109104",
                "CodingSchemeDesignator": "DCM"
              }
],
            "SoftwareVersions": "Tue Oct 22 14:01:57 EDT 2019",
            "StationName": "CBIMRIMGRPC1_111"
          }
],
        [
          {
            "ContributionDateTime": "20220714150000.159-0400",
            "ContributionDescription": "Cleaned",
            "Manufacturer": "PixelMed",
            "ManufacturerModelName": "DicomCleaner",
            "PurposeOfReferenceCodeSequence": [
              {
                "CodeMeaning": "De-identifying Equipment",
                "CodeValue": "109104",
                "CodingSchemeDesignator": "DCM"
              }
],
            "SoftwareVersions": "Tue Oct 22 14:01:57 EDT 2019",
            "StationName": "CBIMRIMGRPC1_111"
          }
],
        [
          {
            "ContributionDateTime": "20220714150000.164-0400",
            "ContributionDescription": "Cleaned",
            "Manufacturer": "PixelMed",
            "ManufacturerModelName": "DicomCleaner",
            "PurposeOfReferenceCodeSequence": [
              {
                "CodeMeaning": "De-identifying Equipment",
                "CodeValue": "109104",
                "CodingSchemeDesignator": "DCM"
              }
],
            "SoftwareVersions": "Tue Oct 22 14:01:57 EDT 2019",
            "StationName": "CBIMRIMGRPC1_111"
          }
],
        [
          {
            "ContributionDateTime": "20220714150000.169-0400",
            "ContributionDescription": "Cleaned",
            "Manufacturer": "PixelMed",
            "ManufacturerModelName": "DicomCleaner",
            "PurposeOfReferenceCodeSequence": [
              {
                "CodeMeaning": "De-identifying Equipment",
                "CodeValue": "109104",
                "CodingSchemeDesignator": "DCM"
              }
],
            "SoftwareVersions": "Tue Oct 22 14:01:57 EDT 2019",
            "StationName": "CBIMRIMGRPC1_111"
          }
],
        [
          {
            "ContributionDateTime": "20220714150000.173-0400",
            "ContributionDescription": "Cleaned",
            "Manufacturer": "PixelMed",
            "ManufacturerModelName": "DicomCleaner",
            "PurposeOfReferenceCodeSequence": [
              {
                "CodeMeaning": "De-identifying Equipment",
                "CodeValue": "109104",
                "CodingSchemeDesignator": "DCM"
              }
],
            "SoftwareVersions": "Tue Oct 22 14:01:57 EDT 2019",
            "StationName": "CBIMRIMGRPC1_111"
          }
],
        [
          {
            "ContributionDateTime": "20220714150000.177-0400",
            "ContributionDescription": "Cleaned",
            "Manufacturer": "PixelMed",
            "ManufacturerModelName": "DicomCleaner",
            "PurposeOfReferenceCodeSequence": [
              {
                "CodeMeaning": "De-identifying Equipment",
                "CodeValue": "109104",
                "CodingSchemeDesignator": "DCM"
              }
],
            "SoftwareVersions": "Tue Oct 22 14:01:57 EDT 2019",
            "StationName": "CBIMRIMGRPC1_111"
          }
],
        [
          {
            "ContributionDateTime": "20220714150000.182-0400",
            "ContributionDescription": "Cleaned",
            "Manufacturer": "PixelMed",
            "ManufacturerModelName": "DicomCleaner",
            "PurposeOfReferenceCodeSequence": [
              {
                "CodeMeaning": "De-identifying Equipment",
                "CodeValue": "109104",
                "CodingSchemeDesignator": "DCM"
              }
],
            "SoftwareVersions": "Tue Oct 22 14:01:57 EDT 2019",
            "StationName": "CBIMRIMGRPC1_111"
          }
],
        [
          {
            "ContributionDateTime": "20220714150000.187-0400",
            "ContributionDescription": "Cleaned",
            "Manufacturer": "PixelMed",
            "ManufacturerModelName": "DicomCleaner",
            "PurposeOfReferenceCodeSequence": [
              {
                "CodeMeaning": "De-identifying Equipment",
                "CodeValue": "109104",
                "CodingSchemeDesignator": "DCM"
              }
],
            "SoftwareVersions": "Tue Oct 22 14:01:57 EDT 2019",
            "StationName": "CBIMRIMGRPC1_111"
          }
],
        [
          {
            "ContributionDateTime": "20220714150000.192-0400",
            "ContributionDescription": "Cleaned",
            "Manufacturer": "PixelMed",
            "ManufacturerModelName": "DicomCleaner",
            "PurposeOfReferenceCodeSequence": [
              {
                "CodeMeaning": "De-identifying Equipment",
                "CodeValue": "109104",
                "CodingSchemeDesignator": "DCM"
              }
],
            "SoftwareVersions": "Tue Oct 22 14:01:57 EDT 2019",
            "StationName": "CBIMRIMGRPC1_111"
          }
],
        [
          {
            "ContributionDateTime": "20220714150000.197-0400",
            "ContributionDescription": "Cleaned",
            "Manufacturer": "PixelMed",
            "ManufacturerModelName": "DicomCleaner",
            "PurposeOfReferenceCodeSequence": [
              {
                "CodeMeaning": "De-identifying Equipment",
                "CodeValue": "109104",
                "CodingSchemeDesignator": "DCM"
              }
],
            "SoftwareVersions": "Tue Oct 22 14:01:57 EDT 2019",
            "StationName": "CBIMRIMGRPC1_111"
          }
],
        [
          {
            "ContributionDateTime": "20220714150000.201-0400",
            "ContributionDescription": "Cleaned",
            "Manufacturer": "PixelMed",
            "ManufacturerModelName": "DicomCleaner",
            "PurposeOfReferenceCodeSequence": [
              {
                "CodeMeaning": "De-identifying Equipment",
                "CodeValue": "109104",
                "CodingSchemeDesignator": "DCM"
              }
],
            "SoftwareVersions": "Tue Oct 22 14:01:57 EDT 2019",
            "StationName": "CBIMRIMGRPC1_111"
          }
],
        [
          {
            "ContributionDateTime": "20220714150000.205-0400",
            "ContributionDescription": "Cleaned",
            "Manufacturer": "PixelMed",
            "ManufacturerModelName": "DicomCleaner",
            "PurposeOfReferenceCodeSequence": [
              {
                "CodeMeaning": "De-identifying Equipment",
                "CodeValue": "109104",
                "CodingSchemeDesignator": "DCM"
              }
],
            "SoftwareVersions": "Tue Oct 22 14:01:57 EDT 2019",
            "StationName": "CBIMRIMGRPC1_111"
          }
],
        [
          {
            "ContributionDateTime": "20220714150000.209-0400",
            "ContributionDescription": "Cleaned",
            "Manufacturer": "PixelMed",
            "ManufacturerModelName": "DicomCleaner",
            "PurposeOfReferenceCodeSequence": [
              {
                "CodeMeaning": "De-identifying Equipment",
                "CodeValue": "109104",
                "CodingSchemeDesignator": "DCM"
              }
],
            "SoftwareVersions": "Tue Oct 22 14:01:57 EDT 2019",
            "StationName": "CBIMRIMGRPC1_111"
          }
],
        [
          {
            "ContributionDateTime": "20220714150000.214-0400",
            "ContributionDescription": "Cleaned",
            "Manufacturer": "PixelMed",
            "ManufacturerModelName": "DicomCleaner",
            "PurposeOfReferenceCodeSequence": [
              {
                "CodeMeaning": "De-identifying Equipment",
                "CodeValue": "109104",
                "CodingSchemeDesignator": "DCM"
              }
],
            "SoftwareVersions": "Tue Oct 22 14:01:57 EDT 2019",
            "StationName": "CBIMRIMGRPC1_111"
          }
],
        [
          {
            "ContributionDateTime": "20220714150000.218-0400",
            "ContributionDescription": "Cleaned",
            "Manufacturer": "PixelMed",
            "ManufacturerModelName": "DicomCleaner",
            "PurposeOfReferenceCodeSequence": [
              {
                "CodeMeaning": "De-identifying Equipment",
                "CodeValue": "109104",
                "CodingSchemeDesignator": "DCM"
              }
],
            "SoftwareVersions": "Tue Oct 22 14:01:57 EDT 2019",
            "StationName": "CBIMRIMGRPC1_111"
          }
],
        [
          {
            "ContributionDateTime": "20220714150000.222-0400",
            "ContributionDescription": "Cleaned",
            "Manufacturer": "PixelMed",
            "ManufacturerModelName": "DicomCleaner",
            "PurposeOfReferenceCodeSequence": [
              {
                "CodeMeaning": "De-identifying Equipment",
                "CodeValue": "109104",
                "CodingSchemeDesignator": "DCM"
              }
],
            "SoftwareVersions": "Tue Oct 22 14:01:57 EDT 2019",
            "StationName": "CBIMRIMGRPC1_111"
          }
],
        [
          {
            "ContributionDateTime": "20220714150000.227-0400",
            "ContributionDescription": "Cleaned",
            "Manufacturer": "PixelMed",
            "ManufacturerModelName": "DicomCleaner",
            "PurposeOfReferenceCodeSequence": [
              {
                "CodeMeaning": "De-identifying Equipment",
                "CodeValue": "109104",
                "CodingSchemeDesignator": "DCM"
              }
],
            "SoftwareVersions": "Tue Oct 22 14:01:57 EDT 2019",
            "StationName": "CBIMRIMGRPC1_111"
          }
],
        [
          {
            "ContributionDateTime": "20220714150000.232-0400",
            "ContributionDescription": "Cleaned",
            "Manufacturer": "PixelMed",
            "ManufacturerModelName": "DicomCleaner",
            "PurposeOfReferenceCodeSequence": [
              {
                "CodeMeaning": "De-identifying Equipment",
                "CodeValue": "109104",
                "CodingSchemeDesignator": "DCM"
              }
],
            "SoftwareVersions": "Tue Oct 22 14:01:57 EDT 2019",
            "StationName": "CBIMRIMGRPC1_111"
          }
],
        [
          {
            "ContributionDateTime": "20220714150000.237-0400",
            "ContributionDescription": "Cleaned",
            "Manufacturer": "PixelMed",
            "ManufacturerModelName": "DicomCleaner",
            "PurposeOfReferenceCodeSequence": [
              {
                "CodeMeaning": "De-identifying Equipment",
                "CodeValue": "109104",
                "CodingSchemeDesignator": "DCM"
              }
],
            "SoftwareVersions": "Tue Oct 22 14:01:57 EDT 2019",
            "StationName": "CBIMRIMGRPC1_111"
          }
],
        [
          {
            "ContributionDateTime": "20220714150000.241-0400",
            "ContributionDescription": "Cleaned",
            "Manufacturer": "PixelMed",
            "ManufacturerModelName": "DicomCleaner",
            "PurposeOfReferenceCodeSequence": [
              {
                "CodeMeaning": "De-identifying Equipment",
                "CodeValue": "109104",
                "CodingSchemeDesignator": "DCM"
              }
],
            "SoftwareVersions": "Tue Oct 22 14:01:57 EDT 2019",
            "StationName": "CBIMRIMGRPC1_111"
          }
],
        [
          {
            "ContributionDateTime": "20220714150000.246-0400",
            "ContributionDescription": "Cleaned",
            "Manufacturer": "PixelMed",
            "ManufacturerModelName": "DicomCleaner",
            "PurposeOfReferenceCodeSequence": [
              {
                "CodeMeaning": "De-identifying Equipment",
                "CodeValue": "109104",
                "CodingSchemeDesignator": "DCM"
              }
],
            "SoftwareVersions": "Tue Oct 22 14:01:57 EDT 2019",
            "StationName": "CBIMRIMGRPC1_111"
          }
],
        [
          {
            "ContributionDateTime": "20220714150000.250-0400",
            "ContributionDescription": "Cleaned",
            "Manufacturer": "PixelMed",
            "ManufacturerModelName": "DicomCleaner",
            "PurposeOfReferenceCodeSequence": [
              {
                "CodeMeaning": "De-identifying Equipment",
                "CodeValue": "109104",
                "CodingSchemeDesignator": "DCM"
              }
],
            "SoftwareVersions": "Tue Oct 22 14:01:57 EDT 2019",
            "StationName": "CBIMRIMGRPC1_111"
          }
],
        [
          {
            "ContributionDateTime": "20220714150000.255-0400",
            "ContributionDescription": "Cleaned",
            "Manufacturer": "PixelMed",
            "ManufacturerModelName": "DicomCleaner",
            "PurposeOfReferenceCodeSequence": [
              {
                "CodeMeaning": "De-identifying Equipment",
                "CodeValue": "109104",
                "CodingSchemeDesignator": "DCM"
              }
],
            "SoftwareVersions": "Tue Oct 22 14:01:57 EDT 2019",
            "StationName": "CBIMRIMGRPC1_111"
          }
],
        [
          {
            "ContributionDateTime": "20220714150000.259-0400",
            "ContributionDescription": "Cleaned",
            "Manufacturer": "PixelMed",
            "ManufacturerModelName": "DicomCleaner",
            "PurposeOfReferenceCodeSequence": [
              {
                "CodeMeaning": "De-identifying Equipment",
                "CodeValue": "109104",
