{
  "AcquisitionMatrixPE": 72,
  "AcquisitionNumber": 1,
  "AcquisitionTime": "21:04:59.815000",
  "BaseResolution": 72,
  "BodyPartExamined": "BRAIN",
  "CoilCombinationMethod": "Sum of Squares",
  "ConsistencyInfo": "N4_VE11C_LATEST_20160120",
  "ConversionSoftware": "dcm2niix",
  "ConversionSoftwareVersion": "v1.0.20220720",
  "DeviceSerialNumber": "45219",
  "DwellTime": 2.39e-05,
  "EchoNumber": 2,
  "EchoTime": 0.00738,
  "EchoTime1": 0.00492,
  "EchoTime2": 0.00738,
  "FlipAngle": 60,
  "HeudiconvVersion": "1.1.6",
  "ImageOrientationPatientDICOM": [1, 4.759e-12, 1.151e-12, -4.897e-12, 0.971961, 0.235142],
  "ImageOrientationText": "Tra>Cor(13.6)",
  "ImageType": [
    "ORIGINAL",
    "PRIMARY",
    "P",
    "ND",
    "PHASE"
],
  "ImagingFrequency": 123.182,
  "InPlanePhaseEncodingDirectionDICOM": "ROW",
  "InstitutionAddress": "First Avenue 660,New York,NYC,US,10016",
  "InstitutionName": "NYU LANGONE CBI",
  "InstitutionalDepartmentName": "Department",
  "MRAcquisitionType": "2D",
  "MagneticFieldStrength": 3,
  "Manufacturer": "Siemens",
  "ManufacturersModelName": "Skyra",
  "MatrixCoilMode": "SENSE",
  "Modality": "MR",
  "NonlinearGradientCorrection": false,
  "PartialFourier": 1,
  "PatientPosition": "HFS",
  "PercentPhaseFOV": 100,
  "PercentSampling": 100,
  "PhaseEncodingDirection": "i",
  "PhaseEncodingSteps": 72,
  "PhaseResolution": 1,
  "PixelBandwidth": 290,
  "ProcedureStepDescription": "MRI BRAIN WITHOUT IV CONTRAST",
  "ProtocolName": "gre_fm_bold",
  "PulseSequenceDetails": "%SiemensSeq%\\gre_field_mapping",
  "ReceiveCoilActiveElements": "HE1-4",
  "ReceiveCoilName": "HeadNeck_20",
  "ReconMatrixPE": 72,
  "RepetitionTime": 0.444,
  "SAR": 0.166429,
  "ScanningSequence": "GR",
  "SequenceName": "*fm2d2r",
  "SequenceVariant": "SP",
  "SeriesDescription": "gre_fm_bold",
  "SeriesNumber": 4,
  "ShimSetting": [-898, -7009, 5024, 191, -369, 511, 505, -135],
  "SliceThickness": 3,
  "SliceTiming": [0.21875, 0, 0.23438, 0.01562, 0.25, 0.03125, 0.25, 0.03125, 0.26562, 0.04688, 0.28125, 0.0625, 0.29688, 0.0625, 0.29688, 0.07812, 0.3125, 0.09375, 0.32812, 0.10938, 0.34375, 0.10938, 0.34375, 0.125, 0.35938, 0.14062, 0.375, 0.15625, 0.39062, 0.15625, 0.39062, 0.17188, 0.40625, 0.1875, 0.42188, 0.20312, 0.4375, 0.20312],
  "SoftwareVersions": "syngo MR E11",
  "SpacingBetweenSlices": 3,
  "StationName": "MRC45219",
  "TxRefAmp": 397.218,
  "dcmmeta_affine": [
    [-3.0, -1.4691000152500244e-11, 0.0, 109.06024169921875],
    [-1.4276999721341e-11, 2.9158830642700195, 0.7054262161254883, -112.1968002319336],
    [3.453000038677878e-12, -0.7054263353347778, 2.9158782958984375, -12.950946807861328],
    [0.0, 0.0, 0.0, 1.0]
],
  "dcmmeta_reorient_transform": [
    [0.0, -1.0, 0.0, 71.0],
    [1.0, 0.0, 0.0, 0.0],
    [0.0, 0.0, -1.0, 37.0],
    [0.0, 0.0, 0.0, 1.0]
],
  "dcmmeta_shape": [72, 72, 38],
  "dcmmeta_slice_dim": 2,
  "dcmmeta_version": 0.6,
  "global": {
    "const": {
      "AccessionNumber": "REMOVED",
      "AcquisitionMatrix": [0, 72, 72, 0],
      "AcquisitionNumber": 1,
      "AngioFlag": "N",
      "BitsAllocated": 16,
      "BitsStored": 12,
      "BodyPartExamined": "BRAIN",
      "Columns": 72,
      "CountryOfResidence": "REMOVED",
      "DeidentificationMethod": "anonymize.default",
      "DeidentificationMethodCodeSequence": [
        {
          "CodeMeaning": "Basic Anonymization",
          "CodeValue": "113199",
          "CodingSchemeDesignator": "2012CDX"
        }
],
      "EchoNumbers": 2,
      "EchoTime": 7.38,
      "EchoTrainLength": 0,
      "FlipAngle": 60.0,
      "HighBit": 11,
      "ImageOrientationPatient": [1.0, 4.759e-12, 1.151e-12, -4.897e-12, 0.97196099986002, 0.23514211607264],
      "ImageType": [
        "ORIGINAL",
        "PRIMARY",
        "P",
        "ND"
],
      "ImagedNucleus": "1H",
      "ImagingFrequency": 123.181968,
      "InPlanePhaseEncodingDirection": "ROW",
      "MRAcquisitionType": "2D",
      "MagneticFieldStrength": 3.0,
      "Manufacturer": "SIEMENS",
      "ManufacturerModelName": "Skyra",
      "Modality": "MR",
      "NumberOfAverages": 1.0,
      "NumberOfPhaseEncodingSteps": 72,
      "PercentPhaseFieldOfView": 100.0,
      "PercentSampling": 100.0,
      "PerformedProcedureStepStartTime": "210142.423000",
      "PhotometricInterpretation": "MONOCHROME2",
      "PixelBandwidth": 290.0,
      "PixelRepresentation": 0,
      "PixelSpacing": [3.0, 3.0],
      "PregnancyStatus": 0,
      "ProcedureCodeSequence": [
        {
          "CodeMeaning": "MRI BRAIN WITHOUT IV CONTRAST",
          "CodeValue": "IMG269",
          "CodingSchemeDesignator": "L"
        }
],
      "ProtocolName": "gre_fm_bold",
      "RepetitionTime": 444.0,
      "RequestAttributesSequence": [
        {
          "RequestedProcedureID": "293873041",
          "ScheduledProcedureStepDescription": "MRI BRAIN WITHOUT IV CONTRAST",
          "ScheduledProcedureStepID": "E8943926",
          "ScheduledProtocolCodeSequence": [
            {
              "CodeMeaning": "MRI BRAIN WITHOUT IV CONTRAST",
              "CodeValue": "651061",
              "CodingSchemeDesignator": "L"
            }
]
        }
],
      "RequestedProcedureCodeSequence": [
        {
          "CodeMeaning": "MRI BRAIN WITHOUT IV CONTRAST",
          "CodeValue": "IMG269",
          "CodingSchemeDesignator": "L"
        }
],
      "RescaleIntercept": -4096.0,
      "RescaleSlope": 2.0,
      "RescaleType": "US",
      "Rows": 72,
      "SAR": 0.16642853070237,
      "SamplesPerPixel": 1,
      "ScanningSequence": "GR",
      "SequenceName": "*fm2d2r",
      "SequenceVariant": "SP",
      "SeriesDescription": "gre_fm_bold",
      "SeriesNumber": 4,
      "SeriesTime": "210604.275000",
      "SliceThickness": 3.0,
      "SmokingStatus": "REMOVED",
      "SoftwareVersions": "syngo MR E11",
      "SpacingBetweenSlices": 3.0,
      "SpecificCharacterSet": "ISO_IR 100",
      "StudyID": "REMOVED",
      "StudyTime": "210142.268000",
      "TransmitCoilName": "Body",
      "VariableFlipAngleFlag": "N",
      "WindowCenterWidthExplanation": "Algo1",
      "dBdt": 0.0},
    "slices": {
      "AcquisitionTime": ["210459.815000", "210459.592500", "210459.827500", "210459.605000", "210459.837500", "210459.617500", "210459.850000", "210459.627500", "210459.862500", "210459.640000", "210459.872500", "210459.652500", "210459.885000", "210459.662500", "210459.897500", "210459.675000", "210459.907500", "210459.687500", "210459.920000", "210459.697500", "210459.932500", "210459.710000", "210459.942500", "210459.722500", "210459.955000", "210459.732500", "210459.967500", "210459.745000", "210459.977500", "210459.757500", "210459.990000", "210459.767500", "210500.002500", "210459.780000", "210500.012500", "210459.792500", "210500.025000", "210459.802500"],
      "ContentTime": ["210604.322000", "210604.278000", "210604.324000", "210604.280000", "210604.326000", "210604.284000", "210604.328000", "210604.287000", "210604.330000", "210604.290000", "210604.332000", "210604.292000", "210604.334000", "210604.294000", "210604.337000", "210604.296000", "210604.339000", "210604.298000", "210604.344000", "210604.301000", "210604.346000", "210604.303000", "210604.349000", "210604.305000", "210604.351000", "210604.307000", "210604.354000", "210604.309000", "210604.356000", "210604.311000", "210604.375000", "210604.313000", "210604.386000", "210604.315000", "210604.388000", "210604.317000", "210604.390000", "210604.319000"],
      "CsaImage.ICE_Dims": [
        "X_2_1_1_1_1_1_20_1_1_1_1_4895",
        "X_2_1_1_1_1_1_1_1_1_2_1_4895",
        "X_2_1_1_1_1_1_21_1_1_3_1_4895",
        "X_2_1_1_1_1_1_2_1_1_4_1_4895",
        "X_2_1_1_1_1_1_22_1_1_5_1_4895",
        "X_2_1_1_1_1_1_3_1_1_6_1_4895",
        "X_2_1_1_1_1_1_23_1_1_7_1_4895",
        "X_2_1_1_1_1_1_4_1_1_8_1_4895",
        "X_2_1_1_1_1_1_24_1_1_9_1_4895",
        "X_2_1_1_1_1_1_5_1_1_10_1_4895",
        "X_2_1_1_1_1_1_25_1_1_11_1_4895",
        "X_2_1_1_1_1_1_6_1_1_12_1_4895",
        "X_2_1_1_1_1_1_26_1_1_13_1_4895",
        "X_2_1_1_1_1_1_7_1_1_14_1_4895",
        "X_2_1_1_1_1_1_27_1_1_15_1_4895",
        "X_2_1_1_1_1_1_8_1_1_16_1_4895",
        "X_2_1_1_1_1_1_28_1_1_17_1_4895",
        "X_2_1_1_1_1_1_9_1_1_18_1_4895",
        "X_2_1_1_1_1_1_29_1_1_19_1_4895",
        "X_2_1_1_1_1_1_10_1_1_20_1_4895",
        "X_2_1_1_1_1_1_30_1_1_21_1_4895",
        "X_2_1_1_1_1_1_11_1_1_22_1_4895",
        "X_2_1_1_1_1_1_31_1_1_23_1_4895",
        "X_2_1_1_1_1_1_12_1_1_24_1_4895",
        "X_2_1_1_1_1_1_32_1_1_25_1_4895",
        "X_2_1_1_1_1_1_13_1_1_26_1_4895",
        "X_2_1_1_1_1_1_33_1_1_27_1_4895",
        "X_2_1_1_1_1_1_14_1_1_28_1_4895",
        "X_2_1_1_1_1_1_34_1_1_29_1_4895",
        "X_2_1_1_1_1_1_15_1_1_30_1_4895",
        "X_2_1_1_1_1_1_35_1_1_31_1_4895",
        "X_2_1_1_1_1_1_16_1_1_32_1_4895",
        "X_2_1_1_1_1_1_36_1_1_33_1_4895",
        "X_2_1_1_1_1_1_17_1_1_34_1_4895",
        "X_2_1_1_1_1_1_37_1_1_35_1_4895",
        "X_2_1_1_1_1_1_18_1_1_36_1_4895",
        "X_2_1_1_1_1_1_38_1_1_37_1_4895",
        "X_2_1_1_1_1_1_19_1_1_38_1_4895"
],
      "CsaImage.ProtocolSliceNumber": [0, 1, 2, 3, 4, 5, 6, 7, 8, 9, 10, 11, 12, 13, 14, 15, 16, 17, 18, 19, 20, 21, 22, 23, 24, 25, 26, 27, 28, 29, 30, 31, 32, 33, 34, 35, 36, 37],
      "CsaImage.SliceMeasurementDuration": [63047.5, 63047.5, 63047.5, 63047.5, 63050.0, 63047.5, 63047.5, 63047.5, 63047.5, 63047.5, 63050.0, 63047.5, 63047.5, 63047.5, 63047.5, 63047.5, 63050.0, 63047.5, 63047.5, 63047.5, 63047.5, 63047.5, 63050.0, 63047.5, 63047.5, 63047.5, 63047.5, 63047.5, 63050.0, 63047.5, 63047.5, 63047.5, 63047.5, 63047.5, 63050.0, 63047.5, 63047.5, 63050.0],
      "CsaImage.SlicePosition_PCS": [
        [-109.06024098, -94.83088833, -63.03638934],
        [-109.06024098, -95.53631454, -60.12050341],
        [-109.06024098, -96.24174076, -57.20462321],
        [-109.06024098, -96.94716793, -54.28873919],
        [-109.06024098, -97.65259367, -51.37285708],
        [-109.06024098, -98.35802036, -48.45697306],
        [-109.06024098, -99.06344658, -45.54109095],
        [-109.06024098, -99.76887279, -42.62520693],
        [-109.06024098, -100.47429901, -39.70932387],
        [-109.06024098, -101.17972546, -36.79344081],
        [-109.06024098, -101.88515192, -33.8775587],
        [-109.06024098, -102.59057814, -30.96167515],
        [-109.06024098, -103.29600459, -28.04579233],
        [-109.06024098, -104.00143092, -25.12990926],
        [-109.06024098, -104.70685726, -22.2140262],
        [-109.06024098, -105.4122836, -19.29814337],
        [-109.06024098, -106.11770993, -16.38226031],
        [-109.06024098, -106.82313627, -13.46637725],
        [-109.06024098, -107.5285626, -10.55049418],
        [-109.06024098, -108.23398906, -7.63461207],
        [-109.06024098, -108.93941527, -4.71872805],
        [-109.06024098, -109.64484173, -1.80284594],
        [-109.06024098, -110.35026794, 1.11303808],
        [-109.06024098, -111.05569416, 4.02892019],
        [-109.06024098, -111.76112085, 6.9448042],
        [-109.06024098, -112.46654707, 9.86068632],
        [-109.06024098, -113.17197376, 12.77656843],
        [-109.06024098, -113.87739998, 15.69245435],
        [-109.06024098, -114.58282619, 18.60833646],
        [-109.06024098, -115.28825241, 21.52421857],
        [-109.06024098, -115.99367863, 24.44010068],
        [-109.06024098, -116.69910484, 27.35598661],
        [-109.06024098, -117.40453106, 30.27186872],
        [-109.06024098, -118.10995727, 33.18775083],
        [-109.06024098, -118.81538444, 36.10363294],
        [-109.06024098, -119.52081066, 39.01951505],
        [-109.06024098, -120.22623688, 41.93540098],
        [-109.06024098, -120.93166309, 44.85127927]
],
      "CsaImage.TimeAfterStart": [0.6675, 0.445, 0.68, 0.4575, 0.6925, 0.47, 0.7025, 0.48, 0.715, 0.4925, 0.7275, 0.505, 0.7375, 0.515, 0.75, 0.5275, 0.7625, 0.54, 0.7725, 0.55, 0.785, 0.5625, 0.7975, 0.575, 0.8075, 0.585, 0.82, 0.5975, 0.8325, 0.61, 0.8425, 0.62, 0.855, 0.6325, 0.8675, 0.645, 0.8775, 0.6575],
      "ImagePositionPatient": [
        [-109.06024098343, -94.830888327193, -63.036389337971],
        [-109.06024098343, -95.536314543319, -60.120503412678],
        [-109.06024098343, -96.241740759444, -57.204623209431],
        [-109.06024098343, -96.947167929244, -54.288739191487],
        [-109.06024098343, -97.652593668532, -51.372857080891],
        [-109.06024098343, -98.358020361495, -48.456973062947],
        [-109.06024098343, -99.06344657762, -45.541090952351],
        [-109.06024098343, -99.768872793746, -42.625206934407],
        [-109.06024098343, -100.47429900987, -39.709323870137],
        [-109.06024098343, -101.17972546442, -36.793440805867],
        [-109.06024098343, -101.88515191896, -33.877558695271],
        [-109.06024098343, -102.59057813508, -30.961675154164],
        [-109.06024098343, -103.29600458963, -28.045792328313],
        [-109.06024098343, -104.00143092496, -25.129909264043],
        [-109.06024098343, -104.7068572603, -22.214026199773],
        [-109.06024098343, -105.41228359563, -19.298143373921],
        [-109.06024098343, -106.11770993097, -16.382260309651],
        [-109.06024098343, -106.8231362663, -13.466377245381],
        [-109.06024098343, -107.52856260164, -10.550494181111],
        [-109.06024098343, -108.23398905618, -7.6346120705153],
        [-109.06024098343, -108.93941527231, -4.718728052571],
        [-109.06024098343, -109.64484172685, -1.8028459419753],
        [-109.06024098343, -110.35026794298, 1.113038075969],
        [-109.06024098343, -111.0556941591, 4.0289201865648],
        [-109.06024098343, -111.76112085206, 6.9448042045091],
        [-109.06024098343, -112.46654706819, 9.8606863151048],
        [-109.06024098343, -113.17197376115, 12.7765684257],
        [-109.06024098343, -113.87739997728, 15.692454350993],
        [-109.06024098343, -114.5828261934, 18.608336461589],
        [-109.06024098343, -115.28825240953, 21.524218572185],
        [-109.06024098343, -115.99367862565, 24.440100682781],
        [-109.06024098343, -116.69910484178, 27.355986608074],
        [-109.06024098343, -117.40453105791, 30.271868718669],
        [-109.06024098343, -118.10995727403, 33.187750829265],
        [-109.06024098343, -118.81538444383, 36.103632939861],
        [-109.06024098343, -119.52081065996, 39.019515050456],
        [-109.06024098343, -120.22623687608, 41.935400975749],
        [-109.06024098343, -120.93166309221, 44.851279271648]
],
      "InstanceCreationTime": ["210604.322000", "210604.278000", "210604.324000", "210604.280000", "210604.326000", "210604.284000", "210604.328000", "210604.287000", "210604.330000", "210604.290000", "210604.332000", "210604.292000", "210604.334000", "210604.294000", "210604.337000", "210604.296000", "210604.339000", "210604.298000", "210604.344000", "210604.301000", "210604.346000", "210604.303000", "210604.349000", "210604.305000", "210604.351000", "210604.307000", "210604.354000", "210604.309000", "210604.356000", "210604.311000", "210604.375000", "210604.313000", "210604.386000", "210604.315000", "210604.388000", "210604.317000", "210604.390000", "210604.319000"],
      "InstanceNumber": [1, 2, 3, 4, 5, 6, 7, 8, 9, 10, 11, 12, 13, 14, 15, 16, 17, 18, 19, 20, 21, 22, 23, 24, 25, 26, 27, 28, 29, 30, 31, 32, 33, 34, 35, 36, 37, 38],
      "LargestImagePixelValue": [4095, 4090, 4091, 4094, 4093, 4094, 4094, 4093, 4094, 4091, 4089, 4093, 4094, 4093, 4090, 4088, 4093, 4091, 4087, 4094, 4094, 4090, 4088, 4088, 4092, 4092, 4092, 4087, 4079, 4065, 4094, 4092, 4086, 4091, 4091, 4093, 4094, 4091],
      "SliceLocation": [-38.970176258196, -35.970173445577, -32.970176194564, -29.970175011565, -26.970176018809, -23.970174947934, -20.970175843053, -17.970174884303, -14.970174852487, -11.970174764609, -8.9701756036658, -5.970175108383, -2.9701752522387, 0.02982480760806, 3.0298248674548, 6.029824695568, 9.0298247554148, 12.029824815262, 15.029824875108, 18.029824036052, 21.029824994802, 24.029824155745, 27.029825114495, 30.029824219377, 33.029825290251, 36.029824395133, 39.029823612138, 42.029826424757, 45.029825529638, 48.02982463452, 51.029823739401, 54.029826552019, 57.029825656901, 60.029824761782, 63.029824090913, 66.029823195794, 69.029826008412, 72.029821405557],
      "SmallestImagePixelValue": [12, 5, 0, 0, 0, 0, 1, 4, 1, 3, 6, 0, 1, 0, 0, 1, 17, 2, 1, 2, 4, 17, 12, 10, 3, 4, 3, 0, 0, 8, 7, 1, 1, 3, 0, 0, 5, 0],
      "WindowCenter": [-268.0, -322.0, -466.0, -406.0, -320.0, -476.0, -438.0, -452.0, -400.0, -334.0, -334.0, -348.0, -296.0, -322.0, -330.0, -336.0, -188.0, -270.0, -144.0, -262.0, -248.0, -264.0, -310.0, -302.0, -360.0, -406.0, -496.0, -576.0, -540.0, -370.0, -544.0, -376.0, -322.0, -266.0, -252.0, -268.0, -250.0, -226.0],
      "WindowWidth": [5546.0, 5700.0, 4800.0, 4774.0, 5342.0, 4808.0, 4778.0, 4772.0, 4740.0, 4694.0, 4698.0, 4716.0, 4684.0, 4692.0, 4666.0, 4668.0, 5056.0, 4576.0, 5004.0, 4548.0, 4522.0, 4508.0, 4518.0, 4542.0, 4564.0, 4580.0, 4630.0, 4704.0, 4716.0, 5492.0, 4780.0, 5480.0, 5512.0, 5716.0, 5870.0, 6038.0, 6250.0, 6366.0]
    }
  }
}