{
  "AcquisitionMatrixPE": 72,
  "AcquisitionNumber": 1,
  "AcquisitionTime": "20:53:23.845000",
  "BandwidthPerPixelPhaseEncode": 24.366,
  "BaseResolution": 72,
  "BodyPartExamined": "BRAIN",
  "CoilCombinationMethod": "Sum of Squares",
  "ConsistencyInfo": "N4_VE11C_LATEST_20160120",
  "ConversionSoftware": "dcm2niix",
  "ConversionSoftwareVersion": "v1.0.20220720",
  "DerivedVendorReportedEchoSpacing": 0.000570011,
  "DeviceSerialNumber": "45219",
  "DwellTime": 3.5e-06,
  "EchoTime": 0.03,
  "EchoTrainLength": 72,
  "EffectiveEchoSpacing": 0.000570011,
  "FlipAngle": 80,
  "HeudiconvVersion": "1.1.6",
  "ImageOrientationPatientDICOM": [0.997588, 0.0380117, -0.0580877, -0.0296077, 0.989816, 0.139243],
  "ImageOrientationText": "Tra>Cor(7.9)>Sag(-3.6)",
  "ImageType": [
    "ORIGINAL",
    "PRIMARY",
    "M",
    "ND",
    "NORM",
    "MOSAIC"
],
  "ImagingFrequency": 123.182,
  "InPlanePhaseEncodingDirectionDICOM": "COL",
  "InstitutionAddress": "First Avenue 660,New York,NYC,US,10016",
  "InstitutionName": "NYU LANGONE CBI",
  "InstitutionalDepartmentName": "Department",
  "MRAcquisitionType": "2D",
  "MagneticFieldStrength": 3,
  "Manufacturer": "Siemens",
  "ManufacturersModelName": "Skyra",
  "MatrixCoilMode": "SENSE",
  "Modality": "MR",
  "NonlinearGradientCorrection": false,
  "PartialFourier": 1,
  "PatientPosition": "HFS",
  "PercentPhaseFOV": 100,
  "PercentSampling": 100,
  "PhaseEncodingDirection": "j-",
  "PhaseEncodingSteps": 72,
  "PhaseResolution": 1,
  "PixelBandwidth": 1985,
  "ProcedureStepDescription": "MRI BRAIN WITHOUT IV CONTRAST",
  "ProtocolName": "REST_2",
  "PulseSequenceDetails": "%SiemensSeq%\\ep2d_bold",
  "ReceiveCoilActiveElements": "HE1-4",
  "ReceiveCoilName": "HeadNeck_20",
  "ReconMatrixPE": 72,
  "RepetitionTime": 2.5,
  "SAR": 0.157053,
  "ScanOptions": "FS",
  "ScanningSequence": "EP",
  "SequenceName": "*epfid2d1_72",
  "SequenceVariant": "SK",
  "SeriesDescription": "REST_2",
  "SeriesNumber": 8,
  "ShimSetting": [-888, -7051, 5287, 593, -276, 326, 224, -53],
  "SliceThickness": 3,
  "SliceTiming": [1.24, 0, 1.305, 0.065, 1.37, 0.13, 1.435, 0.195, 1.5, 0.26, 1.565, 0.3275, 1.6325, 0.3925, 1.6975, 0.4575, 1.7625, 0.5225, 1.8275, 0.5875, 1.8925, 0.6525, 1.9575, 0.7175, 2.0225, 0.7825, 2.0875, 0.8475, 2.1525, 0.9125, 2.22, 0.98, 2.285, 1.045, 2.35, 1.11, 2.415, 1.175],
  "SoftwareVersions": "syngo MR E11",
  "SpacingBetweenSlices": 3,
  "StationName": "MRC45219",
  "TaskName": "rest",
  "TotalReadoutTime": 0.0404708,
  "TxRefAmp": 423.167,
  "dcmmeta_affine": [
    [-2.992762565612793, -0.0888231098651886, -0.18836696445941925, 107.90094757080078],
    [-0.11403509974479675, 2.9694466590881348, 0.41156095266342163, -112.67994689941406],
    [-0.17426317930221558, -0.4177282452583313, 2.9656593799591064, 16.063602447509766],
    [0.0, 0.0, 0.0, 1.0]
],
  "dcmmeta_reorient_transform": [
    [0.0, -1.0, 0.0, 71.0],
    [1.0, 0.0, 0.0, 0.0],
    [0.0, 0.0, 1.0, 0.0],
    [0.0, 0.0, 0.0, 1.0]
],
  "dcmmeta_shape": [72, 72, 38, 122],
  "dcmmeta_slice_dim": 2,
  "dcmmeta_version": 0.6,
  "global": {
    "const": {
      "AcquisitionMatrix": [72, 0, 0, 72],
      "AngioFlag": "N",
      "BitsAllocated": 16,
      "BitsStored": 12,
      "BodyPartExamined": "BRAIN",
      "Columns": 504,
      "CountryOfResidence": "United States of America [1]",
      "EchoNumbers": 1,
      "EchoTime": 30.0,
      "EchoTrainLength": 72,
      "FlipAngle": 80.0,
      "HighBit": 11,
      "ImageOrientationPatient": [0.99758755335139, 0.03801169982782, -0.0580877274009, -0.0296077039733, 0.98981555872147, 0.13924275054143],
      "ImagePositionPatient": [-728.84544900646, -764.18283325977, -66.183558383707],
      "ImageType": [
        "ORIGINAL",
        "PRIMARY",
        "M",
        "ND",
        "NORM",
        "MOSAIC"
],
      "ImagedNucleus": "1H",
      "ImagingFrequency": 123.181795,
      "InPlanePhaseEncodingDirection": "COL",
      "MRAcquisitionType": "2D",
      "MagneticFieldStrength": 3.0,
      "Manufacturer": "SIEMENS",
      "ManufacturerModelName": "Skyra",
      "Modality": "MR",
      "NumberOfAverages": 1.0,
      "NumberOfPhaseEncodingSteps": 72,
      "PercentPhaseFieldOfView": 100.0,
      "PercentSampling": 100.0,
      "PerformedProcedureStepStartTime": "203716.050000",
      "PhotometricInterpretation": "MONOCHROME2",
      "PixelBandwidth": 1985.0,
      "PixelRepresentation": 0,
      "PixelSpacing": [3.0, 3.0],
      "PregnancyStatus": 4,
      "ProcedureCodeSequence": [
        {
          "CodeMeaning": "MRI BRAIN WITHOUT IV CONTRAST",
          "CodeValue": "IMG269",
          "CodingSchemeDesignator": "L"
        }
],
      "ProtocolName": "REST_2",
      "RepetitionTime": 2500.0,
      "RequestAttributesSequence": [
        {
          "ScheduledProcedureStepDescription": "MRI BRAIN WITHOUT IV CONTRAST",
          "ScheduledProcedureStepID": "E9554153",
          "ScheduledProtocolCodeSequence": [
            {
              "CodeMeaning": "MRI BRAIN WITHOUT IV CONTRAST",
              "CodeValue": "651061",
              "CodingSchemeDesignator": "L"
            }
]
        }
],
      "RequestedProcedureCodeSequence": [
        {
          "CodeMeaning": "MRI BRAIN WITHOUT IV CONTRAST",
          "CodeValue": "IMG269",
          "CodingSchemeDesignator": "L"
        }
],
      "Rows": 504,
      "SAR": 0.15705318660919,
      "SamplesPerPixel": 1,
      "ScanOptions": "FS",
      "ScanningSequence": "EP",
      "SequenceName": "*epfid2d1_72",
      "SequenceVariant": "SK",
      "SeriesDescription": "REST_2",
      "SeriesNumber": 8,
      "SeriesTime": "205356.885000",
      "SliceLocation": -6.3534896161459,
      "SliceThickness": 3.0,
      "SmallestImagePixelValue": 0,
      "SmokingStatus": "UNKNOWN",
      "SoftwareVersions": "syngo MR E11",
      "SpacingBetweenSlices": 2.999999919681,
      "SpecificCharacterSet": "ISO_IR 100",
      "StudyTime": "203715.879000",
      "TransmitCoilName": "Body",
      "VariableFlipAngleFlag": "N",
      "WindowCenterWidthExplanation": "Algo1",
      "dBdt": 0.0},
    "slices": {}
  },
  "time": {
    "samples": {
      "AcquisitionNumber": [1, 2, 3, 4, 5, 6, 7, 8, 9, 10, 11, 12, 13, 14, 15, 16, 17, 18, 19, 20, 21, 22, 23, 24, 25, 26, 27, 28, 29, 30, 31, 32, 33, 34, 35, 36, 37, 38, 39, 40, 41, 42, 43, 44, 45, 46, 47, 48, 49, 50, 51, 52, 53, 54, 55, 56, 57, 58, 59, 60, 61, 62, 63, 64, 65, 66, 67, 68, 69, 70, 71, 72, 73, 74, 75, 76, 77, 78, 79, 80, 81, 82, 83, 84, 85, 86, 87, 88, 89, 90, 91, 92, 93, 94, 95, 96, 97, 98, 99, 100, 101, 102, 103, 104, 105, 106, 107, 108, 109, 110, 111, 112, 113, 114, 115, 116, 117, 118, 119, 120, 121, 122],
      "AcquisitionTime": ["205323.845000", "205326.345000", "205328.845000", "205331.345000", "205333.845000", "205336.345000", "205338.845000", "205341.345000", "205343.845000", "205346.345000", "205348.845000", "205351.345000", "205353.845000", "205356.345000", "205358.845000", "205401.345000", "205403.845000", "205406.345000", "205408.845000", "205411.345000", "205413.845000", "205416.345000", "205418.845000", "205421.345000", "205423.845000", "205426.345000", "205428.845000", "205431.345000", "205433.845000", "205436.345000", "205438.845000", "205441.345000", "205443.845000", "205446.345000", "205448.845000", "205451.345000", "205453.845000", "205456.345000", "205458.845000", "205501.345000", "205503.845000", "205506.345000", "205508.845000", "205511.345000", "205513.845000", "205516.345000", "205518.845000", "205521.345000", "205523.845000", "205526.345000", "205528.845000", "205531.345000", "205533.845000", "205536.345000", "205538.845000", "205541.345000", "205543.845000", "205546.345000", "205548.845000", "205551.345000", "205553.845000", "205556.345000", "205558.845000", "205601.345000", "205603.845000", "205606.345000", "205608.845000", "205611.345000", "205613.845000", "205616.345000", "205618.845000", "205621.345000", "205623.845000", "205626.345000", "205628.845000", "205631.345000", "205633.845000", "205636.345000", "205638.845000", "205641.345000", "205643.845000", "205646.345000", "205648.845000", "205651.345000", "205653.845000", "205656.345000", "205658.845000", "205701.345000", "205703.845000", "205706.345000", "205708.845000", "205711.345000", "205713.845000", "205716.345000", "205718.845000", "205721.345000", "205723.845000", "205726.345000", "205728.845000", "205731.345000", "205733.845000", "205736.345000", "205738.845000", "205741.345000", "205743.845000", "205746.345000", "205748.845000", "205751.345000", "205753.845000", "205756.345000", "205758.845000", "205801.345000", "205803.845000", "205806.345000", "205808.845000", "205811.345000", "205813.845000", "205816.345000", "205818.845000", "205821.345000", "205823.845000", "205826.345000"],
      "ContentTime": ["205356.889000", "205356.893000", "205356.895000", "205356.898000", "205356.901000", "205356.904000", "205356.906000", "205356.913000", "205356.916000", "205356.919000", "205356.925000", "205356.927000", "205356.930000", "205456.884000", "205456.887000", "205456.889000", "205456.892000", "205456.895000", "205456.897000", "205456.900000", "205456.903000", "205456.906000", "205456.908000", "205456.911000", "205456.914000", "205456.917000", "205456.919000", "205456.922000", "205456.925000", "205456.927000", "205456.930000", "205456.933000", "205456.935000", "205456.938000", "205456.941000", "205456.944000", "205456.946000", "205556.884000", "205556.886000", "205556.889000", "205556.892000", "205556.895000", "205556.897000", "205556.900000", "205556.903000", "205556.912000", "205556.915000", "205556.918000", "205556.921000", "205556.923000", "205556.926000", "205556.929000", "205556.931000", "205556.934000", "205556.937000", "205556.939000", "205556.942000", "205556.945000", "205556.947000", "205556.950000", "205556.953000", "205656.884000", "205656.887000", "205656.889000", "205656.892000", "205656.895000", "205656.897000", "205656.900000", "205656.903000", "205656.906000", "205656.908000", "205656.911000", "205656.914000", "205656.917000", "205656.919000", "205656.922000", "205656.925000", "205656.927000", "205656.930000", "205656.933000", "205656.935000", "205656.938000", "205656.941000", "205656.943000", "205656.946000", "205756.884000", "205756.887000", "205756.889000", "205756.892000", "205756.895000", "205756.897000", "205756.900000", "205756.903000", "205756.906000", "205756.908000", "205756.911000", "205756.914000", "205756.916000", "205756.919000", "205756.922000", "205756.932000", "205756.935000", "205756.938000", "205756.940000", "205756.943000", "205756.946000", "205756.948000", "205756.951000", "205756.954000", "205827.990000", "205827.993000", "205827.996000", "205828.002000", "205828.005000", "205828.008000", "205828.010000", "205828.013000", "205828.016000", "205828.019000", "205828.022000", "205828.027000", "205828.031000"],
      "InstanceCreationTime": ["205356.889000", "205356.893000", "205356.895000", "205356.898000", "205356.901000", "205356.904000", "205356.906000", "205356.913000", "205356.916000", "205356.919000", "205356.925000", "205356.927000", "205356.930000", "205456.884000", "205456.887000", "205456.889000", "205456.892000", "205456.895000", "205456.897000", "205456.900000", "205456.903000", "205456.906000", "205456.908000", "205456.911000", "205456.914000", "205456.917000", "205456.919000", "205456.922000", "205456.925000", "205456.927000", "205456.930000", "205456.933000", "205456.935000", "205456.938000", "205456.941000", "205456.944000", "205456.946000", "205556.884000", "205556.886000", "205556.889000", "205556.892000", "205556.895000", "205556.897000", "205556.900000", "205556.903000", "205556.912000", "205556.915000", "205556.918000", "205556.921000", "205556.923000", "205556.926000", "205556.929000", "205556.931000", "205556.934000", "205556.937000", "205556.939000", "205556.942000", "205556.945000", "205556.947000", "205556.950000", "205556.953000", "205656.884000", "205656.887000", "205656.889000", "205656.892000", "205656.895000", "205656.897000", "205656.900000", "205656.903000", "205656.906000", "205656.908000", "205656.911000", "205656.914000", "205656.917000", "205656.919000", "205656.922000", "205656.925000", "205656.927000", "205656.930000", "205656.933000", "205656.935000", "205656.938000", "205656.941000", "205656.943000", "205656.946000", "205756.884000", "205756.887000", "205756.889000", "205756.892000", "205756.895000", "205756.897000", "205756.900000", "205756.903000", "205756.906000", "205756.908000", "205756.911000", "205756.914000", "205756.916000", "205756.919000", "205756.922000", "205756.932000", "205756.935000", "205756.938000", "205756.940000", "205756.943000", "205756.946000", "205756.948000", "205756.951000", "205756.954000", "205827.990000", "205827.993000", "205827.996000", "205828.002000", "205828.005000", "205828.008000", "205828.010000", "205828.013000", "205828.016000", "205828.019000", "205828.022000", "205828.027000", "205828.031000"],
      "InstanceNumber": [1, 2, 3, 4, 5, 6, 7, 8, 9, 10, 11, 12, 13, 14, 15, 16, 17, 18, 19, 20, 21, 22, 23, 24, 25, 26, 27, 28, 29, 30, 31, 32, 33, 34, 35, 36, 37, 38, 39, 40, 41, 42, 43, 44, 45, 46, 47, 48, 49, 50, 51, 52, 53, 54, 55, 56, 57, 58, 59, 60, 61, 62, 63, 64, 65, 66, 67, 68, 69, 70, 71, 72, 73, 74, 75, 76, 77, 78, 79, 80, 81, 82, 83, 84, 85, 86, 87, 88, 89, 90, 91, 92, 93, 94, 95, 96, 97, 98, 99, 100, 101, 102, 103, 104, 105, 106, 107, 108, 109, 110, 111, 112, 113, 114, 115, 116, 117, 118, 119, 120, 121, 122],
      "LargestImagePixelValue": [1909, 2057, 2023, 1988, 2011, 2457, 1989, 2119, 2208, 1975, 1930, 1896, 2111, 2210, 1963, 1891, 1823, 1836, 1902, 1924, 1824, 1837, 1868, 2019, 1973, 1856, 1834, 1857, 1911, 1866, 1832, 1873, 1858, 1800, 1884, 1818, 1933, 1854, 1792, 1880, 1863, 1889, 2087, 1840, 1833, 1871, 1947, 2063, 2116, 1808, 1811, 1815, 1823, 1794, 1848, 1840, 1838, 1940, 1888, 1945, 1864, 1835, 1851, 1833, 1800, 1833, 1809, 1834, 1914, 1996, 1836, 1919, 1865, 1870, 1835, 1801, 1887, 1829, 1857, 1955, 1830, 1835, 1826, 1773, 1856, 1843, 1831, 1924, 1856, 1871, 1897, 1888, 1847, 1874, 1883, 1934, 1858, 1868, 1892, 1816, 1931, 1912, 1881, 1875, 1837, 1864, 1834, 1848, 1848, 1829, 1885, 1870, 1868, 1892, 1891, 1819, 1859, 1916, 1847, 1806, 1857, 1859],
      "WindowCenter": [685.0, 682.0, 683.0, 685.0, 683.0, 683.0, 681.0, 681.0, 680.0, 678.0, 679.0, 680.0, 680.0, 680.0, 680.0, 682.0, 680.0, 679.0, 682.0, 682.0, 682.0, 680.0, 682.0, 683.0, 681.0, 680.0, 681.0, 681.0, 679.0, 678.0, 681.0, 680.0, 680.0, 680.0, 680.0, 680.0, 679.0, 681.0, 680.0, 680.0, 678.0, 679.0, 679.0, 679.0, 679.0, 679.0, 678.0, 679.0, 678.0, 678.0, 681.0, 682.0, 682.0, 681.0, 683.0, 684.0, 681.0, 679.0, 680.0, 678.0, 679.0, 680.0, 679.0, 679.0, 680.0, 680.0, 680.0, 682.0, 682.0, 681.0, 681.0, 680.0, 679.0, 682.0, 682.0, 681.0, 679.0, 682.0, 681.0, 682.0, 681.0, 679.0, 681.0, 681.0, 682.0, 683.0, 682.0, 681.0, 680.0, 681.0, 682.0, 681.0, 680.0, 682.0, 683.0, 683.0, 682.0, 682.0, 681.0, 681.0, 682.0, 682.0, 682.0, 680.0, 682.0, 682.0, 682.0, 684.0, 684.0, 682.0, 680.0, 680.0, 681.0, 680.0, 679.0, 680.0, 681.0, 681.0, 680.0, 682.0, 683.0, 684.0],
      "WindowWidth": [1457.0, 1449.0, 1452.0, 1457.0, 1452.0, 1453.0, 1447.0, 1447.0, 1446.0, 1442.0, 1443.0, 1445.0, 1446.0, 1445.0, 1445.0, 1451.0, 1446.0, 1443.0, 1450.0, 1451.0, 1449.0, 1444.0, 1451.0, 1451.0, 1447.0, 1445.0, 1448.0, 1446.0, 1442.0, 1440.0, 1447.0, 1445.0, 1444.0, 1445.0, 1446.0, 1445.0, 1443.0, 1448.0, 1446.0, 1445.0, 1441.0, 1442.0, 1442.0, 1444.0, 1443.0, 1442.0, 1441.0, 1441.0, 1440.0, 1439.0, 1446.0, 1449.0, 1449.0, 1448.0, 1451.0, 1453.0, 1448.0, 1443.0, 1444.0, 1441.0, 1442.0, 1444.0, 1441.0, 1442.0, 1445.0, 1445.0, 1445.0, 1449.0, 1448.0, 1448.0, 1446.0, 1444.0, 1443.0, 1448.0, 1449.0, 1447.0, 1442.0, 1449.0, 1448.0, 1450.0, 1447.0, 1441.0, 1447.0, 1447.0, 1450.0, 1452.0, 1450.0, 1447.0, 1445.0, 1448.0, 1448.0, 1447.0, 1446.0, 1450.0, 1451.0, 1451.0, 1449.0, 1449.0, 1447.0, 1446.0, 1448.0, 1449.0, 1449.0, 1445.0, 1448.0, 1450.0, 1450.0, 1454.0, 1455.0, 1449.0, 1445.0, 1446.0, 1446.0, 1444.0, 1442.0, 1445.0, 1448.0, 1447.0, 1445.0, 1450.0, 1451.0, 1455.0]
    },
    "slices": {}
  }
}