{
  "AcquisitionMatrixPE": 72,
  "AcquisitionNumber": 1,
  "AcquisitionTime": "20:53:23.845000",
  "BandwidthPerPixelPhaseEncode": 24.366,
  "BaseResolution": 72,
  "BodyPartExamined": "BRAIN",
  "CoilCombinationMethod": "Sum of Squares",
  "ConsistencyInfo": "N4_VE11C_LATEST_20160120",
  "ConversionSoftware": "dcm2niix",
  "ConversionSoftwareVersion": "v1.0.20220720",
  "DerivedVendorReportedEchoSpacing": 0.000570011,
  "DeviceSerialNumber": "45219",
  "DwellTime": 3.5e-06,
  "EchoTime": 0.03,
  "EchoTrainLength": 72,
  "EffectiveEchoSpacing": 0.000570011,
  "FlipAngle": 80,
  "HeudiconvVersion": "1.1.6",
  "ImageComments": "Reference volume for motion correction.",
  "ImageOrientationPatientDICOM": [0.997588, 0.0380117, -0.0580877, -0.0296077, 0.989816, 0.139243],
  "ImageOrientationText": "Tra>Cor(7.9)>Sag(-3.6)",
  "ImageType": [
    "ORIGINAL",
    "PRIMARY",
    "M",
    "ND",
    "NORM",
    "MOCO",
    "MOSAIC"
],
  "ImagingFrequency": 123.182,
  "InPlanePhaseEncodingDirectionDICOM": "COL",
  "InstitutionAddress": "First Avenue 660,New York,NYC,US,10016",
  "InstitutionName": "NYU LANGONE CBI",
  "InstitutionalDepartmentName": "Department",
  "MRAcquisitionType": "2D",
  "MagneticFieldStrength": 3,
  "Manufacturer": "Siemens",
  "ManufacturersModelName": "Skyra",
  "MatrixCoilMode": "SENSE",
  "Modality": "MR",
  "NonlinearGradientCorrection": false,
  "PartialFourier": 1,
  "PatientPosition": "HFS",
  "PercentPhaseFOV": 100,
  "PercentSampling": 100,
  "PhaseEncodingDirection": "j-",
  "PhaseEncodingSteps": 72,
  "PhaseResolution": 1,
  "PixelBandwidth": 1985,
  "ProcedureStepDescription": "MRI BRAIN WITHOUT IV CONTRAST",
  "ProtocolName": "REST_2_MoCo",
  "PulseSequenceDetails": "%SiemensSeq%\\ep2d_bold",
  "ReceiveCoilActiveElements": "HE1-4",
  "ReceiveCoilName": "HeadNeck_20",
  "ReconMatrixPE": 72,
  "RepetitionTime": 2.5,
  "SAR": 0.157053,
  "ScanOptions": "FS",
  "ScanningSequence": "EP",
  "SequenceName": "*epfid2d1_72",
  "SequenceVariant": "SK",
  "SeriesDescription": "MoCoSeries",
  "SeriesNumber": 9,
  "ShimSetting": [-888, -7051, 5287, 593, -276, 326, 224, -53],
  "SliceThickness": 3,
  "SliceTiming": [1.24, 0, 1.305, 0.065, 1.37, 0.13, 1.435, 0.195, 1.5, 0.26, 1.565, 0.3275, 1.6325, 0.3925, 1.6975, 0.4575, 1.7625, 0.5225, 1.8275, 0.5875, 1.8925, 0.6525, 1.9575, 0.7175, 2.0225, 0.7825, 2.0875, 0.8475, 2.1525, 0.9125, 2.22, 0.98, 2.285, 1.045, 2.35, 1.11, 2.415, 1.175],
  "SoftwareVersions": "syngo MR E11",
  "SpacingBetweenSlices": 3,
  "StationName": "MRC45219",
  "TaskName": "rest",
  "TotalReadoutTime": 0.0404708,
  "TxRefAmp": 423.167,
  "dcmmeta_affine": [
    [-2.992762565612793, -0.0888231098651886, -0.18836696445941925, 107.90094757080078],
    [-0.11403509974479675, 2.9694466590881348, 0.41156095266342163, -112.67994689941406],
    [-0.17426317930221558, -0.4177282452583313, 2.9656593799591064, 16.063602447509766],
    [0.0, 0.0, 0.0, 1.0]
],
  "dcmmeta_reorient_transform": [
    [0.0, -1.0, 0.0, 71.0],
    [1.0, 0.0, 0.0, 0.0],
    [0.0, 0.0, 1.0, 0.0],
    [0.0, 0.0, 0.0, 1.0]
],
  "dcmmeta_shape": [72, 72, 38, 122],
  "dcmmeta_slice_dim": 2,
  "dcmmeta_version": 0.6,
  "global": {
    "const": {
      "AcquisitionMatrix": [72, 0, 0, 72],
      "AngioFlag": "N",
      "BitsAllocated": 16,
      "BitsStored": 12,
      "BodyPartExamined": "BRAIN",
      "Columns": 504,
      "CountryOfResidence": "United States of America [1]",
      "EchoNumbers": 1,
      "EchoTime": 30.0,
      "EchoTrainLength": 72,
      "FlipAngle": 80.0,
      "HighBit": 11,
      "ImageOrientationPatient": [0.99758755335139, 0.03801169982782, -0.0580877274009, -0.0296077039733, 0.98981555872147, 0.13924275054143],
      "ImagePositionPatient": [-728.84544900646, -764.18283325977, -66.183558383707],
      "ImageType": [
        "ORIGINAL",
        "PRIMARY",
        "M",
        "ND",
        "NORM",
        "MOCO",
        "MOSAIC"
],
      "ImagedNucleus": "1H",
      "ImagingFrequency": 123.181795,
      "InPlanePhaseEncodingDirection": "COL",
      "MRAcquisitionType": "2D",
      "MagneticFieldStrength": 3.0,
      "Manufacturer": "SIEMENS",
      "ManufacturerModelName": "Skyra",
      "Modality": "MR",
      "NumberOfAverages": 1.0,
      "NumberOfPhaseEncodingSteps": 72,
      "PercentPhaseFieldOfView": 100.0,
      "PercentSampling": 100.0,
      "PerformedProcedureStepStartTime": "203716.050000",
      "PhotometricInterpretation": "MONOCHROME2",
      "PixelBandwidth": 1985.0,
      "PixelRepresentation": 0,
      "PixelSpacing": [3.0, 3.0],
      "PregnancyStatus": 4,
      "ProcedureCodeSequence": [
        {
          "CodeMeaning": "MRI BRAIN WITHOUT IV CONTRAST",
          "CodeValue": "IMG269",
          "CodingSchemeDesignator": "L"
        }
],
      "ProtocolName": "REST_2",
      "RepetitionTime": 2500.0,
      "RequestAttributesSequence": [
        {
          "ScheduledProcedureStepDescription": "MRI BRAIN WITHOUT IV CONTRAST",
          "ScheduledProcedureStepID": "E9554153",
          "ScheduledProtocolCodeSequence": [
            {
              "CodeMeaning": "MRI BRAIN WITHOUT IV CONTRAST",
              "CodeValue": "651061",
              "CodingSchemeDesignator": "L"
            }
]
        }
],
      "RequestedProcedureCodeSequence": [
        {
          "CodeMeaning": "MRI BRAIN WITHOUT IV CONTRAST",
          "CodeValue": "IMG269",
          "CodingSchemeDesignator": "L"
        }
],
      "Rows": 504,
      "SAR": 0.15705318660919,
      "SamplesPerPixel": 1,
      "ScanOptions": "FS",
      "ScanningSequence": "EP",
      "SequenceName": "*epfid2d1_72",
      "SequenceVariant": "SK",
      "SeriesDescription": "MoCoSeries",
      "SeriesNumber": 9,
      "SeriesTime": "205356.975000",
      "SliceLocation": -6.3534896161459,
      "SliceThickness": 3.0,
      "SmallestImagePixelValue": 0,
      "SmokingStatus": "UNKNOWN",
      "SoftwareVersions": "syngo MR E11",
      "SpacingBetweenSlices": 2.999999919681,
      "SpecificCharacterSet": "ISO_IR 100",
      "StudyTime": "203715.879000",
      "TransmitCoilName": "Body",
      "VariableFlipAngleFlag": "N",
      "WindowCenterWidthExplanation": "Algo1",
      "dBdt": 0.0},
    "slices": {}
  },
  "time": {
    "samples": {
      "AcquisitionNumber": [1, 2, 3, 4, 5, 6, 7, 8, 9, 10, 11, 12, 13, 14, 15, 16, 17, 18, 19, 20, 21, 22, 23, 24, 25, 26, 27, 28, 29, 30, 31, 32, 33, 34, 35, 36, 37, 38, 39, 40, 41, 42, 43, 44, 45, 46, 47, 48, 49, 50, 51, 52, 53, 54, 55, 56, 57, 58, 59, 60, 61, 62, 63, 64, 65, 66, 67, 68, 69, 70, 71, 72, 73, 74, 75, 76, 77, 78, 79, 80, 81, 82, 83, 84, 85, 86, 87, 88, 89, 90, 91, 92, 93, 94, 95, 96, 97, 98, 99, 100, 101, 102, 103, 104, 105, 106, 107, 108, 109, 110, 111, 112, 113, 114, 115, 116, 117, 118, 119, 120, 121, 122],
      "AcquisitionTime": ["205323.845000", "205326.345000", "205328.845000", "205331.345000", "205333.845000", "205336.345000", "205338.845000", "205341.345000", "205343.845000", "205346.345000", "205348.845000", "205351.345000", "205353.845000", "205356.345000", "205358.845000", "205401.345000", "205403.845000", "205406.345000", "205408.845000", "205411.345000", "205413.845000", "205416.345000", "205418.845000", "205421.345000", "205423.845000", "205426.345000", "205428.845000", "205431.345000", "205433.845000", "205436.345000", "205438.845000", "205441.345000", "205443.845000", "205446.345000", "205448.845000", "205451.345000", "205453.845000", "205456.345000", "205458.845000", "205501.345000", "205503.845000", "205506.345000", "205508.845000", "205511.345000", "205513.845000", "205516.345000", "205518.845000", "205521.345000", "205523.845000", "205526.345000", "205528.845000", "205531.345000", "205533.845000", "205536.345000", "205538.845000", "205541.345000", "205543.845000", "205546.345000", "205548.845000", "205551.345000", "205553.845000", "205556.345000", "205558.845000", "205601.345000", "205603.845000", "205606.345000", "205608.845000", "205611.345000", "205613.845000", "205616.345000", "205618.845000", "205621.345000", "205623.845000", "205626.345000", "205628.845000", "205631.345000", "205633.845000", "205636.345000", "205638.845000", "205641.345000", "205643.845000", "205646.345000", "205648.845000", "205651.345000", "205653.845000", "205656.345000", "205658.845000", "205701.345000", "205703.845000", "205706.345000", "205708.845000", "205711.345000", "205713.845000", "205716.345000", "205718.845000", "205721.345000", "205723.845000", "205726.345000", "205728.845000", "205731.345000", "205733.845000", "205736.345000", "205738.845000", "205741.345000", "205743.845000", "205746.345000", "205748.845000", "205751.345000", "205753.845000", "205756.345000", "205758.845000", "205801.345000", "205803.845000", "205806.345000", "205808.845000", "205811.345000", "205813.845000", "205816.345000", "205818.845000", "205821.345000", "205823.845000", "205826.345000"],
      "ContentTime": ["205356.977000", "205356.980000", "205356.983000", "205356.985000", "205357.005000", "205357.008000", "205357.010000", "205357.013000", "205357.016000", "205357.019000", "205357.021000", "205357.024000", "205357.027000", "205456.989000", "205456.992000", "205456.995000", "205456.998000", "205457.002000", "205457.004000", "205457.007000", "205457.010000", "205457.020000", "205457.023000", "205457.026000", "205457.028000", "205457.031000", "205457.034000", "205457.037000", "205457.039000", "205457.042000", "205457.045000", "205457.048000", "205457.050000", "205457.053000", "205457.056000", "205457.059000", "205457.062000", "205556.990000", "205556.993000", "205556.995000", "205556.998000", "205557.002000", "205557.005000", "205557.007000", "205557.010000", "205557.013000", "205557.016000", "205557.018000", "205557.021000", "205557.024000", "205557.027000", "205557.029000", "205557.032000", "205557.035000", "205557.038000", "205557.040000", "205557.043000", "205557.046000", "205557.049000", "205557.051000", "205557.054000", "205656.989000", "205656.992000", "205656.995000", "205656.998000", "205657.002000", "205657.004000", "205657.007000", "205657.010000", "205657.013000", "205657.015000", "205657.018000", "205657.021000", "205657.024000", "205657.026000", "205657.029000", "205657.032000", "205657.034000", "205657.037000", "205657.040000", "205657.043000", "205657.046000", "205657.048000", "205657.051000", "205657.054000", "205756.993000", "205756.996000", "205757.000000", "205757.003000", "205757.006000", "205757.009000", "205757.011000", "205757.014000", "205757.017000", "205757.020000", "205757.022000", "205757.025000", "205757.028000", "205757.031000", "205757.033000", "205757.036000", "205757.039000", "205757.042000", "205757.044000", "205757.047000", "205757.050000", "205757.053000", "205757.055000", "205757.058000", "205828.069000", "205828.072000", "205828.083000", "205828.086000", "205828.089000", "205828.092000", "205828.095000", "205828.098000", "205828.101000", "205828.104000", "205828.107000", "205828.110000", "205828.113000"],
      "InstanceCreationTime": ["205356.977000", "205356.980000", "205356.983000", "205356.985000", "205357.005000", "205357.008000", "205357.010000", "205357.013000", "205357.016000", "205357.019000", "205357.021000", "205357.024000", "205357.027000", "205456.989000", "205456.992000", "205456.995000", "205456.998000", "205457.002000", "205457.004000", "205457.007000", "205457.010000", "205457.020000", "205457.023000", "205457.026000", "205457.028000", "205457.031000", "205457.034000", "205457.037000", "205457.039000", "205457.042000", "205457.045000", "205457.048000", "205457.050000", "205457.053000", "205457.056000", "205457.059000", "205457.062000", "205556.990000", "205556.993000", "205556.995000", "205556.998000", "205557.002000", "205557.005000", "205557.007000", "205557.010000", "205557.013000", "205557.016000", "205557.018000", "205557.021000", "205557.024000", "205557.027000", "205557.029000", "205557.032000", "205557.035000", "205557.038000", "205557.040000", "205557.043000", "205557.046000", "205557.049000", "205557.051000", "205557.054000", "205656.989000", "205656.992000", "205656.995000", "205656.998000", "205657.002000", "205657.004000", "205657.007000", "205657.010000", "205657.013000", "205657.015000", "205657.018000", "205657.021000", "205657.024000", "205657.026000", "205657.029000", "205657.032000", "205657.034000", "205657.037000", "205657.040000", "205657.043000", "205657.046000", "205657.048000", "205657.051000", "205657.054000", "205756.993000", "205756.996000", "205757.000000", "205757.003000", "205757.006000", "205757.009000", "205757.011000", "205757.014000", "205757.017000", "205757.020000", "205757.022000", "205757.025000", "205757.028000", "205757.031000", "205757.033000", "205757.036000", "205757.039000", "205757.042000", "205757.044000", "205757.047000", "205757.050000", "205757.053000", "205757.055000", "205757.058000", "205828.069000", "205828.072000", "205828.083000", "205828.086000", "205828.089000", "205828.092000", "205828.095000", "205828.098000", "205828.101000", "205828.104000", "205828.107000", "205828.110000", "205828.113000"],
      "InstanceNumber": [1, 2, 3, 4, 5, 6, 7, 8, 9, 10, 11, 12, 13, 14, 15, 16, 17, 18, 19, 20, 21, 22, 23, 24, 25, 26, 27, 28, 29, 30, 31, 32, 33, 34, 35, 36, 37, 38, 39, 40, 41, 42, 43, 44, 45, 46, 47, 48, 49, 50, 51, 52, 53, 54, 55, 56, 57, 58, 59, 60, 61, 62, 63, 64, 65, 66, 67, 68, 69, 70, 71, 72, 73, 74, 75, 76, 77, 78, 79, 80, 81, 82, 83, 84, 85, 86, 87, 88, 89, 90, 91, 92, 93, 94, 95, 96, 97, 98, 99, 100, 101, 102, 103, 104, 105, 106, 107, 108, 109, 110, 111, 112, 113, 114, 115, 116, 117, 118, 119, 120, 121, 122],
      "LargestImagePixelValue": [1909, 2080, 2120, 2050, 2036, 2571, 2026, 2122, 2238, 1981, 1972, 1921, 2137, 2199, 2007, 1877, 1832, 1840, 1905, 1854, 1819, 1866, 1894, 1937, 1901, 1873, 1849, 1895, 1894, 1868, 1841, 1854, 1860, 1795, 1866, 1824, 1892, 1838, 1810, 1863, 1892, 1851, 1977, 1835, 1838, 1852, 1903, 2023, 1973, 1772, 1777, 1807, 1813, 1788, 1809, 1837, 1844, 1942, 1888, 1827, 1802, 1830, 1869, 1818, 1811, 1844, 1836, 1837, 1836, 1819, 1889, 1863, 1895, 1899, 1823, 1801, 1876, 1849, 1865, 1826, 1833, 1834, 1797, 1792, 1799, 1857, 1828, 1825, 1844, 1862, 1885, 1871, 1830, 1861, 1887, 1844, 1848, 1897, 1839, 1816, 1885, 1929, 1855, 1836, 1798, 1859, 1832, 1851, 1803, 1798, 1856, 1822, 1854, 1869, 1900, 1799, 1878, 1790, 1772, 1811, 1813, 1796],
      "WindowCenter": [685.0, 682.0, 683.0, 685.0, 683.0, 684.0, 681.0, 681.0, 681.0, 679.0, 679.0, 680.0, 681.0, 680.0, 680.0, 682.0, 680.0, 679.0, 682.0, 682.0, 681.0, 679.0, 682.0, 682.0, 680.0, 680.0, 680.0, 680.0, 678.0, 677.0, 680.0, 679.0, 679.0, 680.0, 679.0, 679.0, 678.0, 680.0, 680.0, 679.0, 678.0, 678.0, 678.0, 679.0, 679.0, 678.0, 677.0, 678.0, 677.0, 677.0, 679.0, 681.0, 681.0, 680.0, 682.0, 683.0, 680.0, 678.0, 679.0, 677.0, 678.0, 679.0, 678.0, 678.0, 679.0, 679.0, 679.0, 681.0, 680.0, 680.0, 680.0, 678.0, 678.0, 681.0, 681.0, 680.0, 678.0, 681.0, 680.0, 680.0, 680.0, 678.0, 680.0, 680.0, 681.0, 682.0, 681.0, 679.0, 679.0, 680.0, 680.0, 679.0, 679.0, 681.0, 681.0, 681.0, 680.0, 680.0, 679.0, 679.0, 680.0, 681.0, 681.0, 679.0, 680.0, 681.0, 681.0, 683.0, 683.0, 680.0, 679.0, 679.0, 680.0, 679.0, 678.0, 679.0, 680.0, 679.0, 679.0, 681.0, 681.0, 683.0],
      "WindowWidth": [1457.0, 1450.0, 1454.0, 1458.0, 1453.0, 1454.0, 1448.0, 1448.0, 1447.0, 1442.0, 1443.0, 1444.0, 1446.0, 1445.0, 1446.0, 1450.0, 1446.0, 1443.0, 1450.0, 1449.0, 1447.0, 1443.0, 1450.0, 1449.0, 1445.0, 1444.0, 1446.0, 1446.0, 1440.0, 1439.0, 1446.0, 1443.0, 1442.0, 1444.0, 1444.0, 1443.0, 1441.0, 1446.0, 1445.0, 1443.0, 1440.0, 1441.0, 1440.0, 1443.0, 1442.0, 1441.0, 1439.0, 1439.0, 1437.0, 1437.0, 1443.0, 1447.0, 1447.0, 1446.0, 1449.0, 1452.0, 1446.0, 1441.0, 1443.0, 1438.0, 1440.0, 1442.0, 1439.0, 1440.0, 1443.0, 1442.0, 1443.0, 1447.0, 1445.0, 1444.0, 1444.0, 1441.0, 1441.0, 1446.0, 1447.0, 1445.0, 1439.0, 1447.0, 1445.0, 1446.0, 1444.0, 1439.0, 1445.0, 1445.0, 1447.0, 1450.0, 1448.0, 1444.0, 1442.0, 1444.0, 1446.0, 1444.0, 1443.0, 1447.0, 1448.0, 1447.0, 1446.0, 1446.0, 1444.0, 1443.0, 1446.0, 1446.0, 1447.0, 1443.0, 1445.0, 1447.0, 1448.0, 1452.0, 1452.0, 1446.0, 1443.0, 1443.0, 1444.0, 1442.0, 1439.0, 1442.0, 1445.0, 1443.0, 1442.0, 1447.0, 1448.0, 1451.0]
    },
    "slices": {}
  }
}