{
  "AcquisitionMatrixPE": 72,
  "AcquisitionNumber": 1,
  "AcquisitionTime": "20:47:30.965000",
  "BandwidthPerPixelPhaseEncode": 24.366,
  "BaseResolution": 72,
  "BodyPartExamined": "BRAIN",
  "CoilCombinationMethod": "Sum of Squares",
  "ConsistencyInfo": "N4_VE11C_LATEST_20160120",
  "ConversionSoftware": "dcm2niix",
  "ConversionSoftwareVersion": "v1.0.20220720",
  "DerivedVendorReportedEchoSpacing": 0.000570011,
  "DeviceSerialNumber": "45219",
  "DwellTime": 3.5e-06,
  "EchoTime": 0.03,
  "EchoTrainLength": 72,
  "EffectiveEchoSpacing": 0.000570011,
  "FlipAngle": 80,
  "HeudiconvVersion": "1.1.6",
  "ImageOrientationPatientDICOM": [0.997588, 0.0380117, -0.0580877, -0.0296077, 0.989816, 0.139243],
  "ImageOrientationText": "Tra>Cor(7.9)>Sag(-3.6)",
  "ImageType": [
    "ORIGINAL",
    "PRIMARY",
    "M",
    "ND",
    "NORM",
    "MOSAIC"
],
  "ImagingFrequency": 123.182,
  "InPlanePhaseEncodingDirectionDICOM": "COL",
  "InstitutionAddress": "First Avenue 660,New York,NYC,US,10016",
  "InstitutionName": "NYU LANGONE CBI",
  "InstitutionalDepartmentName": "Department",
  "MRAcquisitionType": "2D",
  "MagneticFieldStrength": 3,
  "Manufacturer": "Siemens",
  "ManufacturersModelName": "Skyra",
  "MatrixCoilMode": "SENSE",
  "Modality": "MR",
  "NonlinearGradientCorrection": false,
  "PartialFourier": 1,
  "PatientPosition": "HFS",
  "PercentPhaseFOV": 100,
  "PercentSampling": 100,
  "PhaseEncodingDirection": "j-",
  "PhaseEncodingSteps": 72,
  "PhaseResolution": 1,
  "PixelBandwidth": 1985,
  "ProcedureStepDescription": "MRI BRAIN WITHOUT IV CONTRAST",
  "ProtocolName": "REST_1",
  "PulseSequenceDetails": "%SiemensSeq%\\ep2d_bold",
  "ReceiveCoilActiveElements": "HE1-4",
  "ReceiveCoilName": "HeadNeck_20",
  "ReconMatrixPE": 72,
  "RepetitionTime": 2.5,
  "SAR": 0.157053,
  "ScanOptions": "FS",
  "ScanningSequence": "EP",
  "SequenceName": "*epfid2d1_72",
  "SequenceVariant": "SK",
  "SeriesDescription": "REST_1",
  "SeriesNumber": 6,
  "ShimSetting": [-888, -7051, 5287, 593, -276, 326, 224, -53],
  "SliceThickness": 3,
  "SliceTiming": [1.24, 0, 1.3075, 0.0675, 1.3725, 0.1325, 1.4375, 0.1975, 1.5025, 0.2625, 1.5675, 0.3275, 1.6325, 0.3925, 1.6975, 0.4575, 1.7625, 0.5225, 1.8275, 0.5875, 1.8925, 0.6525, 1.96, 0.72, 2.025, 0.785, 2.09, 0.85, 2.155, 0.915, 2.22, 0.98, 2.285, 1.045, 2.35, 1.11, 2.415, 1.175],
  "SoftwareVersions": "syngo MR E11",
  "SpacingBetweenSlices": 3,
  "StationName": "MRC45219",
  "TaskName": "rest",
  "TotalReadoutTime": 0.0404708,
  "TxRefAmp": 423.167,
  "dcmmeta_affine": [
    [-2.992762565612793, -0.0888231098651886, -0.18836696445941925, 107.90094757080078],
    [-0.11403509974479675, 2.9694466590881348, 0.41156095266342163, -112.67994689941406],
    [-0.17426317930221558, -0.4177282452583313, 2.9656593799591064, 16.063602447509766],
    [0.0, 0.0, 0.0, 1.0]
],
  "dcmmeta_reorient_transform": [
    [0.0, -1.0, 0.0, 71.0],
    [1.0, 0.0, 0.0, 0.0],
    [0.0, 0.0, 1.0, 0.0],
    [0.0, 0.0, 0.0, 1.0]
],
  "dcmmeta_shape": [72, 72, 38, 122],
  "dcmmeta_slice_dim": 2,
  "dcmmeta_version": 0.6,
  "global": {
    "const": {
      "AcquisitionMatrix": [72, 0, 0, 72],
      "AngioFlag": "N",
      "BitsAllocated": 16,
      "BitsStored": 12,
      "BodyPartExamined": "BRAIN",
      "Columns": 504,
      "CountryOfResidence": "United States of America [1]",
      "EchoNumbers": 1,
      "EchoTime": 30.0,
      "EchoTrainLength": 72,
      "FlipAngle": 80.0,
      "HighBit": 11,
      "ImageOrientationPatient": [0.99758755335139, 0.03801169982782, -0.0580877274009, -0.0296077039733, 0.98981555872147, 0.13924275054143],
      "ImagePositionPatient": [-728.84544900646, -764.18283325977, -66.183558383707],
      "ImageType": [
        "ORIGINAL",
        "PRIMARY",
        "M",
        "ND",
        "NORM",
        "MOSAIC"
],
      "ImagedNucleus": "1H",
      "ImagingFrequency": 123.181771,
      "InPlanePhaseEncodingDirection": "COL",
      "MRAcquisitionType": "2D",
      "MagneticFieldStrength": 3.0,
      "Manufacturer": "SIEMENS",
      "ManufacturerModelName": "Skyra",
      "Modality": "MR",
      "NumberOfAverages": 1.0,
      "NumberOfPhaseEncodingSteps": 72,
      "PercentPhaseFieldOfView": 100.0,
      "PercentSampling": 100.0,
      "PerformedProcedureStepStartTime": "203716.050000",
      "PhotometricInterpretation": "MONOCHROME2",
      "PixelBandwidth": 1985.0,
      "PixelRepresentation": 0,
      "PixelSpacing": [3.0, 3.0],
      "PregnancyStatus": 4,
      "ProcedureCodeSequence": [
        {
          "CodeMeaning": "MRI BRAIN WITHOUT IV CONTRAST",
          "CodeValue": "IMG269",
          "CodingSchemeDesignator": "L"
        }
],
      "ProtocolName": "REST_1",
      "RepetitionTime": 2500.0,
      "RequestAttributesSequence": [
        {
          "ScheduledProcedureStepDescription": "MRI BRAIN WITHOUT IV CONTRAST",
          "ScheduledProcedureStepID": "E9554153",
          "ScheduledProtocolCodeSequence": [
            {
              "CodeMeaning": "MRI BRAIN WITHOUT IV CONTRAST",
              "CodeValue": "651061",
              "CodingSchemeDesignator": "L"
            }
]
        }
],
      "RequestedProcedureCodeSequence": [
        {
          "CodeMeaning": "MRI BRAIN WITHOUT IV CONTRAST",
          "CodeValue": "IMG269",
          "CodingSchemeDesignator": "L"
        }
],
      "Rows": 504,
      "SAR": 0.15705318660919,
      "SamplesPerPixel": 1,
      "ScanOptions": "FS",
      "ScanningSequence": "EP",
      "SequenceName": "*epfid2d1_72",
      "SequenceVariant": "SK",
      "SeriesDescription": "REST_1",
      "SeriesNumber": 6,
      "SeriesTime": "204829.871000",
      "SliceLocation": -6.3534896161459,
      "SliceThickness": 3.0,
      "SmallestImagePixelValue": 0,
      "SmokingStatus": "UNKNOWN",
      "SoftwareVersions": "syngo MR E11",
      "SpacingBetweenSlices": 2.999999919681,
      "SpecificCharacterSet": "ISO_IR 100",
      "StudyTime": "203715.879000",
      "TransmitCoilName": "Body",
      "VariableFlipAngleFlag": "N",
      "WindowCenterWidthExplanation": "Algo1",
      "dBdt": 0.0},
    "slices": {}
  },
  "time": {
    "samples": {
      "AcquisitionNumber": [1, 2, 3, 4, 5, 6, 7, 8, 9, 10, 11, 12, 13, 14, 15, 16, 17, 18, 19, 20, 21, 22, 23, 24, 25, 26, 27, 28, 29, 30, 31, 32, 33, 34, 35, 36, 37, 38, 39, 40, 41, 42, 43, 44, 45, 46, 47, 48, 49, 50, 51, 52, 53, 54, 55, 56, 57, 58, 59, 60, 61, 62, 63, 64, 65, 66, 67, 68, 69, 70, 71, 72, 73, 74, 75, 76, 77, 78, 79, 80, 81, 82, 83, 84, 85, 86, 87, 88, 89, 90, 91, 92, 93, 94, 95, 96, 97, 98, 99, 100, 101, 102, 103, 104, 105, 106, 107, 108, 109, 110, 111, 112, 113, 114, 115, 116, 117, 118, 119, 120, 121, 122],
      "AcquisitionTime": ["204730.965000", "204733.465000", "204735.965000", "204738.465000", "204740.965000", "204743.465000", "204745.965000", "204748.465000", "204750.965000", "204753.465000", "204755.965000", "204758.465000", "204800.965000", "204803.465000", "204805.965000", "204808.465000", "204810.965000", "204813.465000", "204815.965000", "204818.465000", "204820.965000", "204823.465000", "204825.965000", "204828.465000", "204830.965000", "204833.465000", "204835.965000", "204838.465000", "204840.965000", "204843.465000", "204845.965000", "204848.465000", "204850.965000", "204853.465000", "204855.965000", "204858.465000", "204900.965000", "204903.465000", "204905.965000", "204908.465000", "204910.965000", "204913.465000", "204915.965000", "204918.465000", "204920.965000", "204923.465000", "204925.965000", "204928.465000", "204930.965000", "204933.465000", "204935.965000", "204938.465000", "204940.965000", "204943.465000", "204945.965000", "204948.465000", "204950.965000", "204953.465000", "204955.965000", "204958.465000", "205000.965000", "205003.465000", "205005.965000", "205008.465000", "205010.965000", "205013.465000", "205015.965000", "205018.465000", "205020.965000", "205023.465000", "205025.965000", "205028.465000", "205030.965000", "205033.465000", "205035.965000", "205038.465000", "205040.965000", "205043.465000", "205045.965000", "205048.465000", "205050.965000", "205053.465000", "205055.965000", "205058.465000", "205100.965000", "205103.465000", "205105.965000", "205108.465000", "205110.965000", "205113.465000", "205115.965000", "205118.465000", "205120.965000", "205123.465000", "205125.965000", "205128.465000", "205130.965000", "205133.465000", "205135.965000", "205138.465000", "205140.965000", "205143.465000", "205145.965000", "205148.465000", "205150.965000", "205153.465000", "205155.965000", "205158.465000", "205200.965000", "205203.465000", "205205.965000", "205208.465000", "205210.965000", "205213.465000", "205215.965000", "205218.465000", "205220.965000", "205223.465000", "205225.965000", "205228.465000", "205230.965000", "205233.465000"],
      "ContentTime": ["204829.874000", "204829.878000", "204829.885000", "204829.888000", "204829.890000", "204829.893000", "204829.896000", "204829.898000", "204829.901000", "204829.904000", "204829.906000", "204829.909000", "204829.912000", "204829.914000", "204829.917000", "204829.920000", "204829.922000", "204829.925000", "204829.928000", "204829.931000", "204829.933000", "204829.936000", "204829.939000", "204929.851000", "204929.854000", "204929.857000", "204929.859000", "204929.862000", "204929.865000", "204929.867000", "204929.870000", "204929.873000", "204929.875000", "204929.878000", "204929.881000", "204929.883000", "204929.886000", "204929.889000", "204929.891000", "204929.894000", "204929.897000", "204929.900000", "204929.902000", "204929.905000", "204929.908000", "204929.910000", "204929.913000", "205029.850000", "205029.853000", "205029.856000", "205029.858000", "205029.861000", "205029.864000", "205029.866000", "205029.869000", "205029.872000", "205029.874000", "205029.877000", "205029.880000", "205029.882000", "205029.885000", "205029.888000", "205029.891000", "205029.893000", "205029.896000", "205029.899000", "205029.901000", "205029.904000", "205029.907000", "205029.909000", "205029.912000", "205129.851000", "205129.854000", "205129.857000", "205129.859000", "205129.862000", "205129.865000", "205129.867000", "205129.870000", "205129.873000", "205129.876000", "205129.878000", "205129.881000", "205129.883000", "205129.886000", "205129.889000", "205129.891000", "205129.894000", "205129.897000", "205129.900000", "205129.902000", "205129.905000", "205129.908000", "205129.911000", "205129.913000", "205229.850000", "205229.853000", "205229.855000", "205229.858000", "205229.861000", "205229.864000", "205229.866000", "205229.869000", "205229.872000", "205229.874000", "205229.877000", "205229.880000", "205229.883000", "205229.885000", "205229.888000", "205229.891000", "205229.893000", "205229.896000", "205229.899000", "205229.902000", "205229.904000", "205229.907000", "205229.910000", "205229.912000", "205235.155000", "205235.164000", "205235.167000"],
      "InstanceCreationTime": ["204829.874000", "204829.878000", "204829.885000", "204829.888000", "204829.890000", "204829.893000", "204829.896000", "204829.898000", "204829.901000", "204829.904000", "204829.906000", "204829.909000", "204829.912000", "204829.914000", "204829.917000", "204829.920000", "204829.922000", "204829.925000", "204829.928000", "204829.931000", "204829.933000", "204829.936000", "204829.939000", "204929.851000", "204929.854000", "204929.857000", "204929.859000", "204929.862000", "204929.865000", "204929.867000", "204929.870000", "204929.873000", "204929.875000", "204929.878000", "204929.881000", "204929.883000", "204929.886000", "204929.889000", "204929.891000", "204929.894000", "204929.897000", "204929.900000", "204929.902000", "204929.905000", "204929.908000", "204929.910000", "204929.913000", "205029.850000", "205029.853000", "205029.856000", "205029.858000", "205029.861000", "205029.864000", "205029.866000", "205029.869000", "205029.872000", "205029.874000", "205029.877000", "205029.880000", "205029.882000", "205029.885000", "205029.888000", "205029.891000", "205029.893000", "205029.896000", "205029.899000", "205029.901000", "205029.904000", "205029.907000", "205029.909000", "205029.912000", "205129.851000", "205129.854000", "205129.857000", "205129.859000", "205129.862000", "205129.865000", "205129.867000", "205129.870000", "205129.873000", "205129.876000", "205129.878000", "205129.881000", "205129.883000", "205129.886000", "205129.889000", "205129.891000", "205129.894000", "205129.897000", "205129.900000", "205129.902000", "205129.905000", "205129.908000", "205129.911000", "205129.913000", "205229.850000", "205229.853000", "205229.855000", "205229.858000", "205229.861000", "205229.864000", "205229.866000", "205229.869000", "205229.872000", "205229.874000", "205229.877000", "205229.880000", "205229.883000", "205229.885000", "205229.888000", "205229.891000", "205229.893000", "205229.896000", "205229.899000", "205229.902000", "205229.904000", "205229.907000", "205229.910000", "205229.912000", "205235.155000", "205235.164000", "205235.167000"],
      "InstanceNumber": [1, 2, 3, 4, 5, 6, 7, 8, 9, 10, 11, 12, 13, 14, 15, 16, 17, 18, 19, 20, 21, 22, 23, 24, 25, 26, 27, 28, 29, 30, 31, 32, 33, 34, 35, 36, 37, 38, 39, 40, 41, 42, 43, 44, 45, 46, 47, 48, 49, 50, 51, 52, 53, 54, 55, 56, 57, 58, 59, 60, 61, 62, 63, 64, 65, 66, 67, 68, 69, 70, 71, 72, 73, 74, 75, 76, 77, 78, 79, 80, 81, 82, 83, 84, 85, 86, 87, 88, 89, 90, 91, 92, 93, 94, 95, 96, 97, 98, 99, 100, 101, 102, 103, 104, 105, 106, 107, 108, 109, 110, 111, 112, 113, 114, 115, 116, 117, 118, 119, 120, 121, 122],
      "LargestImagePixelValue": [1944, 2228, 2024, 1888, 1936, 1938, 1893, 2156, 1975, 1985, 2176, 1968, 1893, 1950, 1904, 2108, 1834, 1967, 1934, 1912, 2182, 1889, 1992, 2105, 2241, 1959, 1907, 1875, 1886, 1957, 2226, 2084, 1942, 1916, 1913, 1921, 2035, 1834, 1877, 1888, 1961, 2199, 1922, 1882, 2035, 1850, 1834, 1850, 2036, 1954, 1845, 1869, 1865, 1973, 1831, 1820, 2150, 1848, 1858, 1836, 1860, 1854, 1966, 1915, 1848, 1930, 1850, 1999, 1998, 1841, 1872, 1958, 1981, 1828, 1877, 1838, 1858, 1866, 1836, 1892, 1836, 1855, 1887, 1836, 1840, 1883, 1918, 1810, 1864, 2101, 1924, 2002, 1838, 1885, 1793, 1914, 1844, 1849, 1966, 1873, 1906, 1920, 1859, 2048, 1861, 1871, 1918, 1835, 1816, 1904, 1853, 1860, 1819, 1814, 1794, 1845, 1793, 1851, 1866, 2036, 1898, 1863],
      "WindowCenter": [684.0, 682.0, 680.0, 679.0, 679.0, 680.0, 679.0, 681.0, 680.0, 680.0, 682.0, 681.0, 679.0, 681.0, 681.0, 682.0, 678.0, 681.0, 681.0, 681.0, 680.0, 681.0, 681.0, 681.0, 682.0, 680.0, 679.0, 677.0, 679.0, 680.0, 680.0, 680.0, 680.0, 678.0, 680.0, 680.0, 681.0, 680.0, 681.0, 682.0, 682.0, 681.0, 680.0, 680.0, 680.0, 679.0, 678.0, 682.0, 682.0, 680.0, 680.0, 682.0, 682.0, 682.0, 679.0, 680.0, 680.0, 679.0, 680.0, 681.0, 680.0, 680.0, 679.0, 680.0, 682.0, 683.0, 682.0, 681.0, 681.0, 681.0, 681.0, 682.0, 682.0, 682.0, 682.0, 682.0, 683.0, 683.0, 682.0, 682.0, 683.0, 682.0, 681.0, 681.0, 681.0, 681.0, 680.0, 680.0, 681.0, 682.0, 681.0, 681.0, 681.0, 680.0, 683.0, 684.0, 681.0, 681.0, 680.0, 679.0, 679.0, 680.0, 680.0, 681.0, 679.0, 680.0, 679.0, 678.0, 679.0, 680.0, 683.0, 683.0, 680.0, 682.0, 683.0, 682.0, 680.0, 682.0, 683.0, 681.0, 680.0, 679.0],
      "WindowWidth": [1457.0, 1451.0, 1447.0, 1445.0, 1443.0, 1446.0, 1444.0, 1448.0, 1447.0, 1447.0, 1449.0, 1448.0, 1444.0, 1447.0, 1449.0, 1449.0, 1442.0, 1448.0, 1449.0, 1447.0, 1446.0, 1448.0, 1449.0, 1449.0, 1450.0, 1446.0, 1445.0, 1440.0, 1444.0, 1446.0, 1447.0, 1445.0, 1445.0, 1441.0, 1445.0, 1445.0, 1447.0, 1446.0, 1448.0, 1450.0, 1450.0, 1449.0, 1445.0, 1446.0, 1446.0, 1443.0, 1440.0, 1450.0, 1451.0, 1445.0, 1446.0, 1450.0, 1451.0, 1451.0, 1444.0, 1445.0, 1444.0, 1443.0, 1445.0, 1447.0, 1446.0, 1445.0, 1442.0, 1445.0, 1449.0, 1452.0, 1450.0, 1448.0, 1448.0, 1448.0, 1448.0, 1449.0, 1450.0, 1449.0, 1451.0, 1450.0, 1453.0, 1452.0, 1449.0, 1451.0, 1453.0, 1449.0, 1447.0, 1448.0, 1449.0, 1448.0, 1446.0, 1445.0, 1447.0, 1450.0, 1447.0, 1448.0, 1448.0, 1445.0, 1453.0, 1454.0, 1448.0, 1447.0, 1446.0, 1442.0, 1443.0, 1445.0, 1446.0, 1447.0, 1443.0, 1445.0, 1443.0, 1441.0, 1443.0, 1446.0, 1451.0, 1452.0, 1446.0, 1451.0, 1453.0, 1450.0, 1444.0, 1451.0, 1451.0, 1447.0, 1445.0, 1443.0]
    },
    "slices": {}
  }
}