{
  "AcquisitionMatrixPE": 72,
  "AcquisitionNumber": 1,
  "AcquisitionTime": "20:24:32.187500",
  "BandwidthPerPixelPhaseEncode": 24.366,
  "BaseResolution": 72,
  "BodyPartExamined": "BRAIN",
  "CoilCombinationMethod": "Sum of Squares",
  "ConsistencyInfo": "N4_VE11C_LATEST_20160120",
  "ConversionSoftware": "dcm2niix",
  "ConversionSoftwareVersion": "v1.0.20220720",
  "DerivedVendorReportedEchoSpacing": 0.000570011,
  "DeviceSerialNumber": "45219",
  "DwellTime": 3.5e-06,
  "EchoTime": 0.03,
  "EchoTrainLength": 72,
  "EffectiveEchoSpacing": 0.000570011,
  "FlipAngle": 80,
  "HeudiconvVersion": "1.1.6",
  "ImageOrientationPatientDICOM": [0.999903, 0.000438571, 0.013955, -2.85378e-08, 0.999507, -0.0314101],
  "ImageOrientationText": "Tra>Cor(-1.8)>Sag(0.8)",
  "ImageType": [
    "ORIGINAL",
    "PRIMARY",
    "M",
    "ND",
    "NORM",
    "MOSAIC"
],
  "ImagingFrequency": 123.182,
  "InPlanePhaseEncodingDirectionDICOM": "COL",
  "InstitutionAddress": "First Avenue 660,New York,NYC,US,10016",
  "InstitutionName": "NYU LANGONE CBI",
  "InstitutionalDepartmentName": "Department",
  "MRAcquisitionType": "2D",
  "MagneticFieldStrength": 3,
  "Manufacturer": "Siemens",
  "ManufacturersModelName": "Skyra",
  "MatrixCoilMode": "SENSE",
  "Modality": "MR",
  "NonlinearGradientCorrection": false,
  "PartialFourier": 1,
  "PatientPosition": "HFS",
  "PercentPhaseFOV": 100,
  "PercentSampling": 100,
  "PhaseEncodingDirection": "j-",
  "PhaseEncodingSteps": 72,
  "PhaseResolution": 1,
  "PixelBandwidth": 1985,
  "ProcedureStepDescription": "MRI BRAIN WITHOUT IV CONTRAST",
  "ProtocolName": "TASK_CD",
  "PulseSequenceDetails": "%SiemensSeq%\\ep2d_bold",
  "ReceiveCoilActiveElements": "HE1-4",
  "ReceiveCoilName": "HeadNeck_20",
  "ReconMatrixPE": 72,
  "RepetitionTime": 2.5,
  "SAR": 0.0952368,
  "ScanOptions": "FS",
  "ScanningSequence": "EP",
  "SequenceName": "*epfid2d1_72",
  "SequenceVariant": "SK",
  "SeriesDescription": "TASK_CD",
  "SeriesNumber": 12,
  "ShimSetting": [-912, -6935, 5043, 405, -164, 128, 335, -183],
  "SliceThickness": 3,
  "SliceTiming": [1.24, 0, 1.305, 0.065, 1.37, 0.13, 1.435, 0.195, 1.5, 0.26, 1.565, 0.325, 1.63, 0.39, 1.6975, 0.4575, 1.7625, 0.5225, 1.8275, 0.5875, 1.8925, 0.6525, 1.9575, 0.7175, 2.0225, 0.7825, 2.0875, 0.8475, 2.1525, 0.9125, 2.2175, 0.9775, 2.285, 1.045, 2.35, 1.11, 2.415, 1.175],
  "SoftwareVersions": "syngo MR E11",
  "SpacingBetweenSlices": 3,
  "StationName": "MRC45219",
  "TaskName": "cd",
  "TotalReadoutTime": 0.0404708,
  "TxRefAmp": 453.568,
  "dcmmeta_affine": [
    [-2.9997076988220215, -8.561339370771748e-08, 0.04188552498817444, 106.54517364501953],
    [-0.0013157131616026163, 2.9985196590423584, -0.09422105550765991, -106.02365112304688],
    [0.04186485335230827, 0.09423023462295532, 2.998227596282959, -55.10213851928711],
    [0.0, 0.0, 0.0, 1.0]
],
  "dcmmeta_reorient_transform": [
    [0.0, -1.0, 0.0, 71.0],
    [1.0, 0.0, 0.0, 0.0],
    [0.0, 0.0, 1.0, 0.0],
    [0.0, 0.0, 0.0, 1.0]
],
  "dcmmeta_shape": [72, 72, 38, 132],
  "dcmmeta_slice_dim": 2,
  "dcmmeta_version": 0.6,
  "global": {
    "const": {
      "AcquisitionMatrix": [72, 0, 0, 72],
      "AngioFlag": "N",
      "BitsAllocated": 16,
      "BitsStored": 12,
      "BodyPartExamined": "BRAIN",
      "Columns": 504,
      "CountryOfResidence": "United States of America [1]",
      "EchoNumbers": 1,
      "EchoTime": 30.0,
      "EchoTrainLength": 72,
      "FlipAngle": 80.0,
      "HighBit": 11,
      "ImageOrientationPatient": [0.99990252874876, 0.0004385710467, 0.01395495099525, -2.8537797e-08, 0.99950658173891, -0.0314100789653],
      "ImagePositionPatient": [-754.48198605087, -754.83570678392, -37.100866919173],
      "ImageType": [
        "ORIGINAL",
        "PRIMARY",
        "M",
        "ND",
        "NORM",
        "MOSAIC"
],
      "ImagedNucleus": "1H",
      "ImagingFrequency": 123.181952,
      "InPlanePhaseEncodingDirection": "COL",
      "MRAcquisitionType": "2D",
      "MagneticFieldStrength": 3.0,
      "Manufacturer": "SIEMENS",
      "ManufacturerModelName": "Skyra",
      "Modality": "MR",
      "NumberOfAverages": 1.0,
      "NumberOfPhaseEncodingSteps": 72,
      "PercentPhaseFieldOfView": 100.0,
      "PercentSampling": 100.0,
      "PerformedProcedureStepStartTime": "195856.088000",
      "PhotometricInterpretation": "MONOCHROME2",
      "PixelBandwidth": 1985.0,
      "PixelRepresentation": 0,
      "PixelSpacing": [3.0, 3.0],
      "PregnancyStatus": 4,
      "ProcedureCodeSequence": [
        {
          "CodeMeaning": "MRI BRAIN WITHOUT IV CONTRAST",
          "CodeValue": "IMG269",
          "CodingSchemeDesignator": "L"
        }
],
      "ProtocolName": "TASK_CD",
      "RepetitionTime": 2500.0,
      "RequestAttributesSequence": [
        {
          "RequestedProcedureID": "353073278",
          "ScheduledProcedureStepDescription": "MRI BRAIN WITHOUT IV CONTRAST",
          "ScheduledProcedureStepID": "E10569656",
          "ScheduledProtocolCodeSequence": [
            {
              "CodeMeaning": "MRI BRAIN WITHOUT IV CONTRAST",
              "CodeValue": "651061",
              "CodingSchemeDesignator": "L"
            }
]
        }
],
      "RequestedProcedureCodeSequence": [
        {
          "CodeMeaning": "MRI BRAIN WITHOUT IV CONTRAST",
          "CodeValue": "IMG269",
          "CodingSchemeDesignator": "L"
        }
],
      "Rows": 504,
      "SAR": 0.09523677552932,
      "SamplesPerPixel": 1,
      "ScanOptions": "FS",
      "ScanningSequence": "EP",
      "SequenceName": "*epfid2d1_72",
      "SequenceVariant": "SK",
      "SeriesDescription": "TASK_CD",
      "SeriesNumber": 12,
      "SeriesTime": "202535.325000",
      "SliceLocation": -50.252126591109,
      "SliceThickness": 3.0,
      "SmallestImagePixelValue": 0,
      "SmokingStatus": "UNKNOWN",
      "SoftwareVersions": "syngo MR E11",
      "SpacingBetweenSlices": 3.0000000304297,
      "SpecificCharacterSet": "ISO_IR 100",
      "StudyTime": "195855.923000",
      "TransmitCoilName": "Body",
      "VariableFlipAngleFlag": "N",
      "WindowCenterWidthExplanation": "Algo1",
      "dBdt": 0.0},
    "slices": {}
  },
  "time": {
    "samples": {
      "AcquisitionNumber": [1, 2, 3, 4, 5, 6, 7, 8, 9, 10, 11, 12, 13, 14, 15, 16, 17, 18, 19, 20, 21, 22, 23, 24, 25, 26, 27, 28, 29, 30, 31, 32, 33, 34, 35, 36, 37, 38, 39, 40, 41, 42, 43, 44, 45, 46, 47, 48, 49, 50, 51, 52, 53, 54, 55, 56, 57, 58, 59, 60, 61, 62, 63, 64, 65, 66, 67, 68, 69, 70, 71, 72, 73, 74, 75, 76, 77, 78, 79, 80, 81, 82, 83, 84, 85, 86, 87, 88, 89, 90, 91, 92, 93, 94, 95, 96, 97, 98, 99, 100, 101, 102, 103, 104, 105, 106, 107, 108, 109, 110, 111, 112, 113, 114, 115, 116, 117, 118, 119, 120, 121, 122, 123, 124, 125, 126, 127, 128, 129, 130, 131, 132],
      "AcquisitionTime": ["202432.187500", "202434.687500", "202437.187500", "202439.687500", "202442.187500", "202444.687500", "202447.187500", "202449.687500", "202452.187500", "202454.687500", "202457.187500", "202459.687500", "202502.187500", "202504.687500", "202507.187500", "202509.687500", "202512.187500", "202514.687500", "202517.187500", "202519.687500", "202522.187500", "202524.687500", "202527.187500", "202529.687500", "202532.187500", "202534.687500", "202537.187500", "202539.687500", "202542.187500", "202544.687500", "202547.187500", "202549.687500", "202552.187500", "202554.687500", "202557.187500", "202559.687500", "202602.187500", "202604.687500", "202607.187500", "202609.687500", "202612.187500", "202614.687500", "202617.187500", "202619.687500", "202622.187500", "202624.687500", "202627.187500", "202629.687500", "202632.187500", "202634.687500", "202637.187500", "202639.687500", "202642.187500", "202644.687500", "202647.187500", "202649.687500", "202652.187500", "202654.687500", "202657.187500", "202659.687500", "202702.187500", "202704.687500", "202707.187500", "202709.687500", "202712.187500", "202714.687500", "202717.187500", "202719.687500", "202722.187500", "202724.687500", "202727.187500", "202729.687500", "202732.187500", "202734.687500", "202737.187500", "202739.687500", "202742.187500", "202744.687500", "202747.187500", "202749.687500", "202752.187500", "202754.687500", "202757.187500", "202759.687500", "202802.187500", "202804.687500", "202807.187500", "202809.687500", "202812.187500", "202814.687500", "202817.187500", "202819.687500", "202822.187500", "202824.687500", "202827.187500", "202829.687500", "202832.187500", "202834.687500", "202837.187500", "202839.687500", "202842.187500", "202844.687500", "202847.187500", "202849.687500", "202852.187500", "202854.687500", "202857.187500", "202859.687500", "202902.187500", "202904.687500", "202907.187500", "202909.687500", "202912.187500", "202914.687500", "202917.187500", "202919.687500", "202922.187500", "202924.687500", "202927.187500", "202929.687500", "202932.187500", "202934.687500", "202937.187500", "202939.687500", "202942.187500", "202944.687500", "202947.187500", "202949.687500", "202952.187500", "202954.687500", "202957.187500", "202959.687500"],
      "ContentTime": ["202535.329000", "202535.333000", "202535.335000", "202535.338000", "202535.341000", "202535.343000", "202535.346000", "202535.349000", "202535.351000", "202535.354000", "202535.357000", "202535.359000", "202535.362000", "202535.365000", "202535.367000", "202535.370000", "202535.373000", "202535.375000", "202535.378000", "202535.381000", "202535.383000", "202535.386000", "202535.389000", "202535.391000", "202535.394000", "202635.324000", "202635.327000", "202635.329000", "202635.332000", "202635.335000", "202635.337000", "202635.340000", "202635.343000", "202635.345000", "202635.348000", "202635.351000", "202635.353000", "202635.356000", "202635.359000", "202635.361000", "202635.364000", "202635.367000", "202635.369000", "202635.372000", "202635.374000", "202635.377000", "202635.380000", "202635.383000", "202635.385000", "202735.324000", "202735.327000", "202735.329000", "202735.332000", "202735.335000", "202735.337000", "202735.340000", "202735.343000", "202735.345000", "202735.348000", "202735.351000", "202735.353000", "202735.356000", "202735.359000", "202735.361000", "202735.364000", "202735.367000", "202735.369000", "202735.372000", "202735.375000", "202735.377000", "202735.380000", "202735.383000", "202735.385000", "202755.324000", "202755.327000", "202755.330000", "202755.332000", "202755.335000", "202755.337000", "202755.340000", "202755.343000", "202855.324000", "202855.327000", "202855.329000", "202855.332000", "202855.335000", "202855.337000", "202855.340000", "202855.343000", "202855.345000", "202855.348000", "202855.351000", "202855.354000", "202855.356000", "202855.359000", "202855.362000", "202855.364000", "202855.367000", "202855.370000", "202855.372000", "202855.375000", "202855.392000", "202855.394000", "202855.397000", "202855.400000", "202955.324000", "202955.327000", "202955.330000", "202955.332000", "202955.335000", "202955.337000", "202955.340000", "202955.343000", "202955.346000", "202955.348000", "202955.351000", "202955.354000", "202955.356000", "202955.359000", "202955.362000", "202955.364000", "202955.367000", "202955.370000", "202955.379000", "202955.381000", "202955.384000", "202955.386000", "202955.389000", "202955.392000", "203001.665000", "203001.668000", "203001.678000"],
      "InstanceCreationTime": ["202535.329000", "202535.333000", "202535.335000", "202535.338000", "202535.341000", "202535.343000", "202535.346000", "202535.349000", "202535.351000", "202535.354000", "202535.357000", "202535.359000", "202535.362000", "202535.365000", "202535.367000", "202535.370000", "202535.373000", "202535.375000", "202535.378000", "202535.381000", "202535.383000", "202535.386000", "202535.389000", "202535.391000", "202535.394000", "202635.324000", "202635.327000", "202635.329000", "202635.332000", "202635.335000", "202635.337000", "202635.340000", "202635.343000", "202635.345000", "202635.348000", "202635.351000", "202635.353000", "202635.356000", "202635.359000", "202635.361000", "202635.364000", "202635.367000", "202635.369000", "202635.372000", "202635.374000", "202635.377000", "202635.380000", "202635.383000", "202635.385000", "202735.324000", "202735.327000", "202735.329000", "202735.332000", "202735.335000", "202735.337000", "202735.340000", "202735.343000", "202735.345000", "202735.348000", "202735.351000", "202735.353000", "202735.356000", "202735.359000", "202735.361000", "202735.364000", "202735.367000", "202735.369000", "202735.372000", "202735.375000", "202735.377000", "202735.380000", "202735.383000", "202735.385000", "202755.324000", "202755.327000", "202755.330000", "202755.332000", "202755.335000", "202755.337000", "202755.340000", "202755.343000", "202855.324000", "202855.327000", "202855.329000", "202855.332000", "202855.335000", "202855.337000", "202855.340000", "202855.343000", "202855.345000", "202855.348000", "202855.351000", "202855.354000", "202855.356000", "202855.359000", "202855.362000", "202855.364000", "202855.367000", "202855.370000", "202855.372000", "202855.375000", "202855.392000", "202855.394000", "202855.397000", "202855.400000", "202955.324000", "202955.327000", "202955.330000", "202955.332000", "202955.335000", "202955.337000", "202955.340000", "202955.343000", "202955.346000", "202955.348000", "202955.351000", "202955.354000", "202955.356000", "202955.359000", "202955.362000", "202955.364000", "202955.367000", "202955.370000", "202955.379000", "202955.381000", "202955.384000", "202955.386000", "202955.389000", "202955.392000", "203001.665000", "203001.668000", "203001.678000"],
      "InstanceNumber": [1, 2, 3, 4, 5, 6, 7, 8, 9, 10, 11, 12, 13, 14, 15, 16, 17, 18, 19, 20, 21, 22, 23, 24, 25, 26, 27, 28, 29, 30, 31, 32, 33, 34, 35, 36, 37, 38, 39, 40, 41, 42, 43, 44, 45, 46, 47, 48, 49, 50, 51, 52, 53, 54, 55, 56, 57, 58, 59, 60, 61, 62, 63, 64, 65, 66, 67, 68, 69, 70, 71, 72, 73, 74, 75, 76, 77, 78, 79, 80, 81, 82, 83, 84, 85, 86, 87, 88, 89, 90, 91, 92, 93, 94, 95, 96, 97, 98, 99, 100, 101, 102, 103, 104, 105, 106, 107, 108, 109, 110, 111, 112, 113, 114, 115, 116, 117, 118, 119, 120, 121, 122, 123, 124, 125, 126, 127, 128, 129, 130, 131, 132],
      "LargestImagePixelValue": [2325, 2397, 2081, 2448, 2237, 1900, 1934, 1923, 1970, 1955, 1915, 2017, 2013, 1941, 2285, 3324, 2402, 1971, 2836, 2943, 2114, 2057, 2122, 2104, 2087, 1886, 1834, 1854, 1884, 1868, 2896, 2227, 1850, 1918, 1887, 1902, 1895, 1936, 1925, 1952, 1945, 1940, 2033, 3455, 3236, 2338, 3004, 2273, 1944, 2022, 1929, 1903, 1838, 1853, 2017, 2279, 2625, 1896, 2110, 2622, 2751, 2076, 1954, 2031, 1868, 1915, 1958, 1844, 1900, 1861, 3097, 3636, 2650, 1882, 2139, 3190, 1942, 1878, 1902, 1925, 1923, 2028, 2001, 1915, 1920, 2038, 1991, 1910, 1915, 1948, 2161, 1974, 1978, 1940, 2109, 2816, 2218, 2714, 3229, 2429, 2033, 1890, 1913, 1893, 1899, 1881, 1899, 2121, 2030, 2015, 2803, 2472, 2105, 1962, 2007, 1853, 1851, 1892, 1884, 1916, 1921, 1896, 1957, 1948, 2194, 2800, 3656, 3294, 3067, 2129, 1980, 1923],
      "WindowCenter": [736.0, 735.0, 734.0, 735.0, 734.0, 734.0, 734.0, 733.0, 734.0, 734.0, 734.0, 735.0, 734.0, 734.0, 735.0, 736.0, 734.0, 734.0, 735.0, 736.0, 734.0, 732.0, 735.0, 734.0, 733.0, 733.0, 732.0, 733.0, 734.0, 733.0, 733.0, 723.0, 733.0, 733.0, 733.0, 733.0, 734.0, 735.0, 735.0, 734.0, 734.0, 735.0, 734.0, 737.0, 736.0, 735.0, 736.0, 734.0, 733.0, 733.0, 733.0, 734.0, 733.0, 734.0, 735.0, 735.0, 735.0, 733.0, 734.0, 735.0, 735.0, 733.0, 732.0, 732.0, 732.0, 733.0, 733.0, 733.0, 735.0, 734.0, 736.0, 734.0, 732.0, 731.0, 729.0, 734.0, 732.0, 732.0, 732.0, 732.0, 733.0, 735.0, 735.0, 735.0, 735.0, 735.0, 734.0, 733.0, 733.0, 734.0, 734.0, 734.0, 734.0, 734.0, 735.0, 736.0, 734.0, 735.0, 735.0, 733.0, 732.0, 733.0, 732.0, 732.0, 734.0, 734.0, 734.0, 735.0, 734.0, 734.0, 736.0, 733.0, 728.0, 734.0, 732.0, 732.0, 733.0, 733.0, 733.0, 734.0, 734.0, 733.0, 733.0, 734.0, 734.0, 734.0, 734.0, 732.0, 732.0, 730.0, 730.0, 729.0],
      "WindowWidth": [1579.0, 1576.0, 1574.0, 1576.0, 1573.0, 1572.0, 1572.0, 1570.0, 1572.0, 1572.0, 1572.0, 1575.0, 1573.0, 1572.0, 1575.0, 1580.0, 1574.0, 1572.0, 1577.0, 1577.0, 1572.0, 1567.0, 1575.0, 1572.0, 1570.0, 1569.0, 1568.0, 1570.0, 1574.0, 1569.0, 1572.0, 1544.0, 1570.0, 1569.0, 1569.0, 1571.0, 1572.0, 1575.0, 1575.0, 1574.0, 1574.0, 1575.0, 1574.0, 1582.0, 1580.0, 1575.0, 1578.0, 1574.0, 1572.0, 1570.0, 1571.0, 1572.0, 1571.0, 1573.0, 1575.0, 1575.0, 1576.0, 1570.0, 1573.0, 1576.0, 1577.0, 1570.0, 1568.0, 1568.0, 1568.0, 1570.0, 1571.0, 1570.0, 1576.0, 1572.0, 1578.0, 1574.0, 1568.0, 1566.0, 1561.0, 1573.0, 1567.0, 1568.0, 1566.0, 1567.0, 1570.0, 1574.0, 1575.0, 1573.0, 1573.0, 1575.0, 1573.0, 1571.0, 1570.0, 1571.0, 1573.0, 1571.0, 1571.0, 1573.0, 1574.0, 1577.0, 1573.0, 1576.0, 1577.0, 1569.0, 1567.0, 1569.0, 1568.0, 1568.0, 1571.0, 1573.0, 1572.0, 1574.0, 1573.0, 1571.0, 1576.0, 1568.0, 1558.0, 1573.0, 1567.0, 1568.0, 1569.0, 1571.0, 1570.0, 1572.0, 1572.0, 1570.0, 1570.0, 1573.0, 1573.0, 1575.0, 1575.0, 1570.0, 1569.0, 1562.0, 1564.0, 1562.0]
    },
    "slices": {}
  }
}