{
  "AcquisitionMatrixPE": 72,
  "AcquisitionNumber": 1,
  "AcquisitionTime": "20:07:29.750000",
  "BandwidthPerPixelPhaseEncode": 24.366,
  "BaseResolution": 72,
  "BodyPartExamined": "BRAIN",
  "CoilCombinationMethod": "Sum of Squares",
  "ConsistencyInfo": "N4_VE11C_LATEST_20160120",
  "ConversionSoftware": "dcm2niix",
  "ConversionSoftwareVersion": "v1.0.20220720",
  "DerivedVendorReportedEchoSpacing": 0.000570011,
  "DeviceSerialNumber": "45219",
  "DwellTime": 3.5e-06,
  "EchoTime": 0.03,
  "EchoTrainLength": 72,
  "EffectiveEchoSpacing": 0.000570011,
  "FlipAngle": 80,
  "HeudiconvVersion": "1.1.6",
  "ImageComments": "Reference volume for motion correction.",
  "ImageOrientationPatientDICOM": [0.999903, 0.000438571, 0.013955, -2.85378e-08, 0.999507, -0.0314101],
  "ImageOrientationText": "Tra>Cor(-1.8)>Sag(0.8)",
  "ImageType": [
    "ORIGINAL",
    "PRIMARY",
    "M",
    "ND",
    "NORM",
    "MOCO",
    "MOSAIC"
],
  "ImagingFrequency": 123.182,
  "InPlanePhaseEncodingDirectionDICOM": "COL",
  "InstitutionAddress": "First Avenue 660,New York,NYC,US,10016",
  "InstitutionName": "NYU LANGONE CBI",
  "InstitutionalDepartmentName": "Department",
  "MRAcquisitionType": "2D",
  "MagneticFieldStrength": 3,
  "Manufacturer": "Siemens",
  "ManufacturersModelName": "Skyra",
  "MatrixCoilMode": "SENSE",
  "Modality": "MR",
  "NonlinearGradientCorrection": false,
  "PartialFourier": 1,
  "PatientPosition": "HFS",
  "PercentPhaseFOV": 100,
  "PercentSampling": 100,
  "PhaseEncodingDirection": "j-",
  "PhaseEncodingSteps": 72,
  "PhaseResolution": 1,
  "PixelBandwidth": 1985,
  "ProcedureStepDescription": "MRI BRAIN WITHOUT IV CONTRAST",
  "ProtocolName": "REST_1_MoCo",
  "PulseSequenceDetails": "%SiemensSeq%\\ep2d_bold",
  "ReceiveCoilActiveElements": "HE1-4",
  "ReceiveCoilName": "HeadNeck_20",
  "ReconMatrixPE": 72,
  "RepetitionTime": 2.5,
  "SAR": 0.0952026,
  "ScanOptions": "FS",
  "ScanningSequence": "EP",
  "SequenceName": "*epfid2d1_72",
  "SequenceVariant": "SK",
  "SeriesDescription": "MoCoSeries",
  "SeriesNumber": 7,
  "ShimSetting": [-912, -6935, 5043, 405, -164, 128, 335, -183],
  "SliceThickness": 3,
  "SliceTiming": [1.24, 0, 1.305, 0.065, 1.37, 0.13, 1.435, 0.195, 1.5025, 0.2625, 1.5675, 0.3275, 1.6325, 0.3925, 1.6975, 0.4575, 1.7625, 0.5225, 1.8275, 0.5875, 1.8925, 0.6525, 1.9575, 0.7175, 2.0225, 0.7825, 2.0875, 0.85, 2.155, 0.915, 2.22, 0.98, 2.285, 1.045, 2.35, 1.11, 2.415, 1.175],
  "SoftwareVersions": "syngo MR E11",
  "SpacingBetweenSlices": 3,
  "StationName": "MRC45219",
  "TaskName": "rest",
  "TotalReadoutTime": 0.0404708,
  "TxRefAmp": 453.568,
  "dcmmeta_affine": [
    [-2.9997076988220215, -8.561339370771748e-08, 0.04188552498817444, 106.54517364501953],
    [-0.0013157131616026163, 2.9985196590423584, -0.09422105550765991, -106.02365112304688],
    [0.04186485335230827, 0.09423023462295532, 2.998227596282959, -55.10213851928711],
    [0.0, 0.0, 0.0, 1.0]
],
  "dcmmeta_reorient_transform": [
    [0.0, -1.0, 0.0, 71.0],
    [1.0, 0.0, 0.0, 0.0],
    [0.0, 0.0, 1.0, 0.0],
    [0.0, 0.0, 0.0, 1.0]
],
  "dcmmeta_shape": [72, 72, 38, 122],
  "dcmmeta_slice_dim": 2,
  "dcmmeta_version": 0.6,
  "global": {
    "const": {
      "AcquisitionMatrix": [72, 0, 0, 72],
      "AngioFlag": "N",
      "BitsAllocated": 16,
      "BitsStored": 12,
      "BodyPartExamined": "BRAIN",
      "Columns": 504,
      "CountryOfResidence": "United States of America [1]",
      "EchoNumbers": 1,
      "EchoTime": 30.0,
      "EchoTrainLength": 72,
      "FlipAngle": 80.0,
      "HighBit": 11,
      "ImageOrientationPatient": [0.99990252874876, 0.0004385710467, 0.01395495099525, -2.8537797e-08, 0.99950658173891, -0.0314100789653],
      "ImagePositionPatient": [-754.48198605087, -754.83570678392, -37.100866919173],
      "ImageType": [
        "ORIGINAL",
        "PRIMARY",
        "M",
        "ND",
        "NORM",
        "MOCO",
        "MOSAIC"
],
      "ImagedNucleus": "1H",
      "ImagingFrequency": 123.181859,
      "InPlanePhaseEncodingDirection": "COL",
      "MRAcquisitionType": "2D",
      "MagneticFieldStrength": 3.0,
      "Manufacturer": "SIEMENS",
      "ManufacturerModelName": "Skyra",
      "Modality": "MR",
      "NumberOfAverages": 1.0,
      "NumberOfPhaseEncodingSteps": 72,
      "PercentPhaseFieldOfView": 100.0,
      "PercentSampling": 100.0,
      "PerformedProcedureStepStartTime": "195856.088000",
      "PhotometricInterpretation": "MONOCHROME2",
      "PixelBandwidth": 1985.0,
      "PixelRepresentation": 0,
      "PixelSpacing": [3.0, 3.0],
      "PregnancyStatus": 4,
      "ProcedureCodeSequence": [
        {
          "CodeMeaning": "MRI BRAIN WITHOUT IV CONTRAST",
          "CodeValue": "IMG269",
          "CodingSchemeDesignator": "L"
        }
],
      "ProtocolName": "REST_1",
      "RepetitionTime": 2500.0,
      "RequestAttributesSequence": [
        {
          "RequestedProcedureID": "353073278",
          "ScheduledProcedureStepDescription": "MRI BRAIN WITHOUT IV CONTRAST",
          "ScheduledProcedureStepID": "E10569656",
          "ScheduledProtocolCodeSequence": [
            {
              "CodeMeaning": "MRI BRAIN WITHOUT IV CONTRAST",
              "CodeValue": "651061",
              "CodingSchemeDesignator": "L"
            }
]
        }
],
      "RequestedProcedureCodeSequence": [
        {
          "CodeMeaning": "MRI BRAIN WITHOUT IV CONTRAST",
          "CodeValue": "IMG269",
          "CodingSchemeDesignator": "L"
        }
],
      "Rows": 504,
      "SAR": 0.09520255226856,
      "SamplesPerPixel": 1,
      "ScanOptions": "FS",
      "ScanningSequence": "EP",
      "SequenceName": "*epfid2d1_72",
      "SequenceVariant": "SK",
      "SeriesDescription": "MoCoSeries",
      "SeriesNumber": 7,
      "SeriesTime": "200755.389000",
      "SliceLocation": -50.252126591109,
      "SliceThickness": 3.0,
      "SmallestImagePixelValue": 0,
      "SmokingStatus": "UNKNOWN",
      "SoftwareVersions": "syngo MR E11",
      "SpacingBetweenSlices": 3.0000000304297,
      "SpecificCharacterSet": "ISO_IR 100",
      "StudyTime": "195855.923000",
      "TransmitCoilName": "Body",
      "VariableFlipAngleFlag": "N",
      "WindowCenterWidthExplanation": "Algo1",
      "dBdt": 0.0},
    "slices": {}
  },
  "time": {
    "samples": {
      "AcquisitionNumber": [1, 2, 3, 4, 5, 6, 7, 8, 9, 10, 11, 12, 13, 14, 15, 16, 17, 18, 19, 20, 21, 22, 23, 24, 25, 26, 27, 28, 29, 30, 31, 32, 33, 34, 35, 36, 37, 38, 39, 40, 41, 42, 43, 44, 45, 46, 47, 48, 49, 50, 51, 52, 53, 54, 55, 56, 57, 58, 59, 60, 61, 62, 63, 64, 65, 66, 67, 68, 69, 70, 71, 72, 73, 74, 75, 76, 77, 78, 79, 80, 81, 82, 83, 84, 85, 86, 87, 88, 89, 90, 91, 92, 93, 94, 95, 96, 97, 98, 99, 100, 101, 102, 103, 104, 105, 106, 107, 108, 109, 110, 111, 112, 113, 114, 115, 116, 117, 118, 119, 120, 121, 122],
      "AcquisitionTime": ["200729.750000", "200732.250000", "200734.750000", "200737.250000", "200739.750000", "200742.250000", "200744.750000", "200747.250000", "200749.750000", "200752.250000", "200754.750000", "200757.250000", "200759.750000", "200802.250000", "200804.750000", "200807.250000", "200809.750000", "200812.250000", "200814.750000", "200817.250000", "200819.750000", "200822.250000", "200824.750000", "200827.250000", "200829.750000", "200832.250000", "200834.750000", "200837.250000", "200839.750000", "200842.250000", "200844.750000", "200847.250000", "200849.750000", "200852.250000", "200854.750000", "200857.250000", "200859.750000", "200902.250000", "200904.750000", "200907.250000", "200909.750000", "200912.250000", "200914.750000", "200917.250000", "200919.750000", "200922.250000", "200924.750000", "200927.250000", "200929.750000", "200932.250000", "200934.750000", "200937.250000", "200939.750000", "200942.250000", "200944.750000", "200947.250000", "200949.750000", "200952.250000", "200954.750000", "200957.250000", "200959.750000", "201002.250000", "201004.750000", "201007.250000", "201009.750000", "201012.250000", "201014.750000", "201017.250000", "201019.750000", "201022.250000", "201024.750000", "201027.250000", "201029.750000", "201032.250000", "201034.750000", "201037.250000", "201039.750000", "201042.250000", "201044.750000", "201047.250000", "201049.750000", "201052.250000", "201054.750000", "201057.250000", "201059.750000", "201102.250000", "201104.750000", "201107.250000", "201109.750000", "201112.250000", "201114.750000", "201117.250000", "201119.750000", "201122.250000", "201124.750000", "201127.250000", "201129.750000", "201132.250000", "201134.750000", "201137.250000", "201139.750000", "201142.250000", "201144.750000", "201147.250000", "201149.750000", "201152.250000", "201154.750000", "201157.250000", "201159.750000", "201202.250000", "201204.750000", "201207.250000", "201209.750000", "201212.250000", "201214.750000", "201217.250000", "201219.750000", "201222.250000", "201224.750000", "201227.250000", "201229.750000", "201232.250000"],
      "ContentTime": ["200755.392000", "200755.395000", "200755.397000", "200755.400000", "200755.403000", "200755.405000", "200755.408000", "200755.411000", "200755.414000", "200755.417000", "200855.429000", "200855.432000", "200855.435000", "200855.438000", "200855.440000", "200855.443000", "200855.446000", "200855.448000", "200855.451000", "200855.454000", "200855.457000", "200855.460000", "200855.463000", "200855.465000", "200855.468000", "200855.471000", "200855.473000", "200855.476000", "200855.479000", "200855.481000", "200855.484000", "200855.487000", "200855.490000", "200855.492000", "200955.421000", "200955.424000", "200955.427000", "200955.429000", "200955.432000", "200955.435000", "200955.438000", "200955.440000", "200955.443000", "200955.446000", "200955.449000", "200955.451000", "200955.454000", "200955.457000", "200955.460000", "200955.462000", "200955.465000", "200955.468000", "200955.471000", "200955.473000", "200955.476000", "200955.479000", "200955.482000", "200955.484000", "201055.416000", "201055.419000", "201055.421000", "201055.424000", "201055.427000", "201055.430000", "201055.432000", "201055.435000", "201055.438000", "201055.441000", "201055.443000", "201055.446000", "201055.449000", "201055.452000", "201055.454000", "201055.457000", "201055.460000", "201055.463000", "201055.465000", "201055.468000", "201055.471000", "201055.474000", "201055.476000", "201055.493000", "201155.424000", "201155.427000", "201155.430000", "201155.433000", "201155.436000", "201155.438000", "201155.441000", "201155.444000", "201155.447000", "201155.449000", "201155.452000", "201155.455000", "201155.457000", "201155.460000", "201155.463000", "201155.466000", "201155.469000", "201155.471000", "201155.474000", "201155.477000", "201155.480000", "201155.482000", "201155.485000", "201155.488000", "201234.427000", "201234.430000", "201234.433000", "201234.436000", "201234.438000", "201234.441000", "201234.444000", "201234.447000", "201234.450000", "201234.453000", "201234.456000", "201234.459000", "201234.462000", "201234.465000", "201234.468000", "201234.470000"],
      "InstanceCreationTime": ["200755.392000", "200755.395000", "200755.397000", "200755.400000", "200755.403000", "200755.405000", "200755.408000", "200755.411000", "200755.414000", "200755.417000", "200855.429000", "200855.432000", "200855.435000", "200855.438000", "200855.440000", "200855.443000", "200855.446000", "200855.448000", "200855.451000", "200855.454000", "200855.457000", "200855.460000", "200855.463000", "200855.465000", "200855.468000", "200855.471000", "200855.473000", "200855.476000", "200855.479000", "200855.481000", "200855.484000", "200855.487000", "200855.490000", "200855.492000", "200955.421000", "200955.424000", "200955.427000", "200955.429000", "200955.432000", "200955.435000", "200955.438000", "200955.440000", "200955.443000", "200955.446000", "200955.449000", "200955.451000", "200955.454000", "200955.457000", "200955.460000", "200955.462000", "200955.465000", "200955.468000", "200955.471000", "200955.473000", "200955.476000", "200955.479000", "200955.482000", "200955.484000", "201055.416000", "201055.419000", "201055.421000", "201055.424000", "201055.427000", "201055.430000", "201055.432000", "201055.435000", "201055.438000", "201055.441000", "201055.443000", "201055.446000", "201055.449000", "201055.452000", "201055.454000", "201055.457000", "201055.460000", "201055.463000", "201055.465000", "201055.468000", "201055.471000", "201055.474000", "201055.476000", "201055.493000", "201155.424000", "201155.427000", "201155.430000", "201155.433000", "201155.436000", "201155.438000", "201155.441000", "201155.444000", "201155.447000", "201155.449000", "201155.452000", "201155.455000", "201155.457000", "201155.460000", "201155.463000", "201155.466000", "201155.469000", "201155.471000", "201155.474000", "201155.477000", "201155.480000", "201155.482000", "201155.485000", "201155.488000", "201234.427000", "201234.430000", "201234.433000", "201234.436000", "201234.438000", "201234.441000", "201234.444000", "201234.447000", "201234.450000", "201234.453000", "201234.456000", "201234.459000", "201234.462000", "201234.465000", "201234.468000", "201234.470000"],
      "InstanceNumber": [1, 2, 3, 4, 5, 6, 7, 8, 9, 10, 11, 12, 13, 14, 15, 16, 17, 18, 19, 20, 21, 22, 23, 24, 25, 26, 27, 28, 29, 30, 31, 32, 33, 34, 35, 36, 37, 38, 39, 40, 41, 42, 43, 44, 45, 46, 47, 48, 49, 50, 51, 52, 53, 54, 55, 56, 57, 58, 59, 60, 61, 62, 63, 64, 65, 66, 67, 68, 69, 70, 71, 72, 73, 74, 75, 76, 77, 78, 79, 80, 81, 82, 83, 84, 85, 86, 87, 88, 89, 90, 91, 92, 93, 94, 95, 96, 97, 98, 99, 100, 101, 102, 103, 104, 105, 106, 107, 108, 109, 110, 111, 112, 113, 114, 115, 116, 117, 118, 119, 120, 121, 122],
      "LargestImagePixelValue": [2137, 1989, 2172, 2053, 2106, 2106, 2293, 1970, 1947, 2127, 1990, 2032, 2004, 1981, 2146, 2020, 1898, 2137, 1951, 1879, 1903, 2028, 1877, 1876, 2194, 1875, 1831, 1920, 2293, 1963, 1910, 2066, 1878, 2074, 2019, 1971, 1882, 2179, 1800, 1804, 1868, 1984, 1827, 1912, 1899, 1948, 1862, 1841, 1860, 1992, 2287, 1869, 1906, 2234, 2123, 1864, 1876, 2267, 1926, 1888, 2189, 1939, 1936, 1941, 1875, 1875, 2196, 1906, 1870, 2288, 2029, 1956, 1896, 1941, 2078, 1987, 1900, 1880, 2149, 1947, 1955, 1979, 2000, 1992, 2069, 1983, 1922, 2127, 1949, 1986, 2120, 1952, 1917, 2191, 2037, 2053, 1976, 2054, 1910, 1921, 2055, 2168, 1934, 1925, 2072, 1913, 2067, 2137, 2036, 2237, 2239, 2149, 2020, 1970, 1920, 1999, 2097, 1906, 2175, 2202, 2073, 1965],
      "WindowCenter": [743.0, 740.0, 741.0, 740.0, 740.0, 740.0, 740.0, 739.0, 739.0, 739.0, 739.0, 740.0, 739.0, 739.0, 739.0, 740.0, 739.0, 739.0, 739.0, 739.0, 738.0, 738.0, 738.0, 737.0, 739.0, 738.0, 738.0, 738.0, 740.0, 739.0, 739.0, 738.0, 738.0, 739.0, 738.0, 739.0, 738.0, 738.0, 737.0, 738.0, 738.0, 738.0, 737.0, 738.0, 739.0, 739.0, 738.0, 738.0, 739.0, 739.0, 740.0, 738.0, 738.0, 738.0, 738.0, 738.0, 738.0, 739.0, 738.0, 737.0, 738.0, 738.0, 739.0, 738.0, 738.0, 738.0, 739.0, 738.0, 738.0, 739.0, 738.0, 738.0, 737.0, 738.0, 739.0, 738.0, 738.0, 738.0, 738.0, 738.0, 738.0, 738.0, 738.0, 738.0, 739.0, 739.0, 738.0, 739.0, 739.0, 739.0, 739.0, 738.0, 739.0, 740.0, 739.0, 738.0, 738.0, 739.0, 739.0, 738.0, 739.0, 740.0, 739.0, 739.0, 739.0, 739.0, 739.0, 739.0, 738.0, 739.0, 739.0, 739.0, 739.0, 739.0, 738.0, 739.0, 740.0, 739.0, 739.0, 738.0, 739.0, 738.0],
      "WindowWidth": [1595.0, 1589.0, 1590.0, 1587.0, 1589.0, 1588.0, 1589.0, 1586.0, 1586.0, 1586.0, 1585.0, 1586.0, 1586.0, 1585.0, 1586.0, 1587.0, 1585.0, 1586.0, 1585.0, 1584.0, 1583.0, 1584.0, 1582.0, 1581.0, 1585.0, 1583.0, 1583.0, 1584.0, 1588.0, 1584.0, 1585.0, 1584.0, 1582.0, 1585.0, 1584.0, 1584.0, 1582.0, 1583.0, 1580.0, 1582.0, 1583.0, 1582.0, 1580.0, 1583.0, 1584.0, 1585.0, 1583.0, 1583.0, 1585.0, 1585.0, 1587.0, 1582.0, 1583.0, 1584.0, 1583.0, 1581.0, 1582.0, 1585.0, 1583.0, 1581.0, 1583.0, 1582.0, 1584.0, 1583.0, 1582.0, 1581.0, 1584.0, 1581.0, 1581.0, 1584.0, 1582.0, 1582.0, 1580.0, 1582.0, 1584.0, 1583.0, 1581.0, 1581.0, 1582.0, 1581.0, 1581.0, 1582.0, 1583.0, 1582.0, 1584.0, 1585.0, 1582.0, 1583.0, 1583.0, 1584.0, 1585.0, 1583.0, 1584.0, 1588.0, 1584.0, 1583.0, 1582.0, 1585.0, 1585.0, 1583.0, 1585.0, 1587.0, 1585.0, 1584.0, 1584.0, 1583.0, 1585.0, 1584.0, 1583.0, 1585.0, 1585.0, 1585.0, 1584.0, 1584.0, 1583.0, 1584.0, 1587.0, 1584.0, 1584.0, 1583.0, 1583.0, 1582.0]
    },
    "slices": {}
  }
}