{
  "AcquisitionMatrixPE": 72,
  "AcquisitionNumber": 1,
  "AcquisitionTime": "20:12:58.460000",
  "BandwidthPerPixelPhaseEncode": 24.366,
  "BaseResolution": 72,
  "BodyPartExamined": "BRAIN",
  "CoilCombinationMethod": "Sum of Squares",
  "ConsistencyInfo": "N4_VE11C_LATEST_20160120",
  "ConversionSoftware": "dcm2niix",
  "ConversionSoftwareVersion": "v1.0.20220720",
  "DerivedVendorReportedEchoSpacing": 0.000570011,
  "DeviceSerialNumber": "45219",
  "DwellTime": 3.5e-06,
  "EchoTime": 0.03,
  "EchoTrainLength": 72,
  "EffectiveEchoSpacing": 0.000570011,
  "FlipAngle": 80,
  "HeudiconvVersion": "1.1.6",
  "ImageComments": "Reference volume for motion correction.",
  "ImageOrientationPatientDICOM": [0.999903, 0.000438571, 0.013955, -2.85378e-08, 0.999507, -0.0314101],
  "ImageOrientationText": "Tra>Cor(-1.8)>Sag(0.8)",
  "ImageType": [
    "ORIGINAL",
    "PRIMARY",
    "M",
    "ND",
    "NORM",
    "MOCO",
    "MOSAIC"
],
  "ImagingFrequency": 123.182,
  "InPlanePhaseEncodingDirectionDICOM": "COL",
  "InstitutionAddress": "First Avenue 660,New York,NYC,US,10016",
  "InstitutionName": "NYU LANGONE CBI",
  "InstitutionalDepartmentName": "Department",
  "MRAcquisitionType": "2D",
  "MagneticFieldStrength": 3,
  "Manufacturer": "Siemens",
  "ManufacturersModelName": "Skyra",
  "MatrixCoilMode": "SENSE",
  "Modality": "MR",
  "NonlinearGradientCorrection": false,
  "PartialFourier": 1,
  "PatientPosition": "HFS",
  "PercentPhaseFOV": 100,
  "PercentSampling": 100,
  "PhaseEncodingDirection": "j-",
  "PhaseEncodingSteps": 72,
  "PhaseResolution": 1,
  "PixelBandwidth": 1985,
  "ProcedureStepDescription": "MRI BRAIN WITHOUT IV CONTRAST",
  "ProtocolName": "REST_2_MoCo",
  "PulseSequenceDetails": "%SiemensSeq%\\ep2d_bold",
  "ReceiveCoilActiveElements": "HE1-4",
  "ReceiveCoilName": "HeadNeck_20",
  "ReconMatrixPE": 72,
  "RepetitionTime": 2.5,
  "SAR": 0.0952026,
  "ScanOptions": "FS",
  "ScanningSequence": "EP",
  "SequenceName": "*epfid2d1_72",
  "SequenceVariant": "SK",
  "SeriesDescription": "MoCoSeries",
  "SeriesNumber": 9,
  "ShimSetting": [-912, -6935, 5043, 405, -164, 128, 335, -183],
  "SliceThickness": 3,
  "SliceTiming": [1.24, 0, 1.305, 0.065, 1.37, 0.13, 1.435, 0.195, 1.5025, 0.2625, 1.5675, 0.3275, 1.6325, 0.3925, 1.6975, 0.4575, 1.7625, 0.5225, 1.8275, 0.5875, 1.8925, 0.6525, 1.9575, 0.7175, 2.0225, 0.7825, 2.0875, 0.8475, 2.155, 0.915, 2.22, 0.98, 2.285, 1.045, 2.35, 1.11, 2.415, 1.175],
  "SoftwareVersions": "syngo MR E11",
  "SpacingBetweenSlices": 3,
  "StationName": "MRC45219",
  "TaskName": "rest",
  "TotalReadoutTime": 0.0404708,
  "TxRefAmp": 453.568,
  "dcmmeta_affine": [
    [-2.9997076988220215, -8.561339370771748e-08, 0.04188552498817444, 106.54517364501953],
    [-0.0013157131616026163, 2.9985196590423584, -0.09422105550765991, -106.02365112304688],
    [0.04186485335230827, 0.09423023462295532, 2.998227596282959, -55.10213851928711],
    [0.0, 0.0, 0.0, 1.0]
],
  "dcmmeta_reorient_transform": [
    [0.0, -1.0, 0.0, 71.0],
    [1.0, 0.0, 0.0, 0.0],
    [0.0, 0.0, 1.0, 0.0],
    [0.0, 0.0, 0.0, 1.0]
],
  "dcmmeta_shape": [72, 72, 38, 122],
  "dcmmeta_slice_dim": 2,
  "dcmmeta_version": 0.6,
  "global": {
    "const": {
      "AcquisitionMatrix": [72, 0, 0, 72],
      "AngioFlag": "N",
      "BitsAllocated": 16,
      "BitsStored": 12,
      "BodyPartExamined": "BRAIN",
      "Columns": 504,
      "CountryOfResidence": "United States of America [1]",
      "EchoNumbers": 1,
      "EchoTime": 30.0,
      "EchoTrainLength": 72,
      "FlipAngle": 80.0,
      "HighBit": 11,
      "ImageOrientationPatient": [0.99990252874876, 0.0004385710467, 0.01395495099525, -2.8537797e-08, 0.99950658173891, -0.0314100789653],
      "ImagePositionPatient": [-754.48198605087, -754.83570678392, -37.100866919173],
      "ImageType": [
        "ORIGINAL",
        "PRIMARY",
        "M",
        "ND",
        "NORM",
        "MOCO",
        "MOSAIC"
],
      "ImagedNucleus": "1H",
      "ImagingFrequency": 123.181887,
      "InPlanePhaseEncodingDirection": "COL",
      "MRAcquisitionType": "2D",
      "MagneticFieldStrength": 3.0,
      "Manufacturer": "SIEMENS",
      "ManufacturerModelName": "Skyra",
      "Modality": "MR",
      "NumberOfAverages": 1.0,
      "NumberOfPhaseEncodingSteps": 72,
      "PercentPhaseFieldOfView": 100.0,
      "PercentSampling": 100.0,
      "PerformedProcedureStepStartTime": "195856.088000",
      "PhotometricInterpretation": "MONOCHROME2",
      "PixelBandwidth": 1985.0,
      "PixelRepresentation": 0,
      "PixelSpacing": [3.0, 3.0],
      "PregnancyStatus": 4,
      "ProcedureCodeSequence": [
        {
          "CodeMeaning": "MRI BRAIN WITHOUT IV CONTRAST",
          "CodeValue": "IMG269",
          "CodingSchemeDesignator": "L"
        }
],
      "ProtocolName": "REST_2",
      "RepetitionTime": 2500.0,
      "RequestAttributesSequence": [
        {
          "RequestedProcedureID": "353073278",
          "ScheduledProcedureStepDescription": "MRI BRAIN WITHOUT IV CONTRAST",
          "ScheduledProcedureStepID": "E10569656",
          "ScheduledProtocolCodeSequence": [
            {
              "CodeMeaning": "MRI BRAIN WITHOUT IV CONTRAST",
              "CodeValue": "651061",
              "CodingSchemeDesignator": "L"
            }
]
        }
],
      "RequestedProcedureCodeSequence": [
        {
          "CodeMeaning": "MRI BRAIN WITHOUT IV CONTRAST",
          "CodeValue": "IMG269",
          "CodingSchemeDesignator": "L"
        }
],
      "Rows": 504,
      "SAR": 0.09520255226856,
      "SamplesPerPixel": 1,
      "ScanOptions": "FS",
      "ScanningSequence": "EP",
      "SequenceName": "*epfid2d1_72",
      "SequenceVariant": "SK",
      "SeriesDescription": "MoCoSeries",
      "SeriesNumber": 9,
      "SeriesTime": "201405.833000",
      "SliceLocation": -50.252126591109,
      "SliceThickness": 3.0,
      "SmallestImagePixelValue": 0,
      "SmokingStatus": "UNKNOWN",
      "SoftwareVersions": "syngo MR E11",
      "SpacingBetweenSlices": 3.0000000304297,
      "SpecificCharacterSet": "ISO_IR 100",
      "StudyTime": "195855.923000",
      "TransmitCoilName": "Body",
      "VariableFlipAngleFlag": "N",
      "WindowCenterWidthExplanation": "Algo1",
      "dBdt": 0.0},
    "slices": {}
  },
  "time": {
    "samples": {
      "AcquisitionNumber": [1, 2, 3, 4, 5, 6, 7, 8, 9, 10, 11, 12, 13, 14, 15, 16, 17, 18, 19, 20, 21, 22, 23, 24, 25, 26, 27, 28, 29, 30, 31, 32, 33, 34, 35, 36, 37, 38, 39, 40, 41, 42, 43, 44, 45, 46, 47, 48, 49, 50, 51, 52, 53, 54, 55, 56, 57, 58, 59, 60, 61, 62, 63, 64, 65, 66, 67, 68, 69, 70, 71, 72, 73, 74, 75, 76, 77, 78, 79, 80, 81, 82, 83, 84, 85, 86, 87, 88, 89, 90, 91, 92, 93, 94, 95, 96, 97, 98, 99, 100, 101, 102, 103, 104, 105, 106, 107, 108, 109, 110, 111, 112, 113, 114, 115, 116, 117, 118, 119, 120, 121, 122],
      "AcquisitionTime": ["201258.460000", "201300.960000", "201303.460000", "201305.960000", "201308.460000", "201310.960000", "201313.460000", "201315.960000", "201318.460000", "201320.960000", "201323.460000", "201325.960000", "201328.460000", "201330.960000", "201333.460000", "201335.960000", "201338.460000", "201340.960000", "201343.460000", "201345.960000", "201348.460000", "201350.960000", "201353.460000", "201355.960000", "201358.460000", "201400.960000", "201403.460000", "201405.960000", "201408.460000", "201410.960000", "201413.460000", "201415.960000", "201418.460000", "201420.960000", "201423.460000", "201425.960000", "201428.460000", "201430.960000", "201433.460000", "201435.960000", "201438.460000", "201440.960000", "201443.460000", "201445.960000", "201448.460000", "201450.960000", "201453.460000", "201455.960000", "201458.460000", "201500.960000", "201503.460000", "201505.960000", "201508.460000", "201510.960000", "201513.460000", "201515.960000", "201518.460000", "201520.960000", "201523.460000", "201525.960000", "201528.460000", "201530.960000", "201533.460000", "201535.960000", "201538.460000", "201540.960000", "201543.460000", "201545.960000", "201548.460000", "201550.960000", "201553.460000", "201555.960000", "201558.460000", "201600.960000", "201603.460000", "201605.960000", "201608.460000", "201610.960000", "201613.460000", "201615.960000", "201618.460000", "201620.960000", "201623.460000", "201625.960000", "201628.460000", "201630.960000", "201633.460000", "201635.960000", "201638.460000", "201640.960000", "201643.460000", "201645.960000", "201648.460000", "201650.960000", "201653.460000", "201655.960000", "201658.460000", "201700.960000", "201703.460000", "201705.960000", "201708.460000", "201710.960000", "201713.460000", "201715.960000", "201718.460000", "201720.960000", "201723.460000", "201725.960000", "201728.460000", "201730.960000", "201733.460000", "201735.960000", "201738.460000", "201740.960000", "201743.460000", "201745.960000", "201748.460000", "201750.960000", "201753.460000", "201755.960000", "201758.460000", "201800.960000"],
      "ContentTime": ["201405.835000", "201405.839000", "201405.841000", "201405.844000", "201405.847000", "201405.850000", "201405.852000", "201405.855000", "201405.858000", "201405.861000", "201405.863000", "201405.866000", "201405.869000", "201405.872000", "201405.874000", "201405.877000", "201405.880000", "201405.882000", "201405.885000", "201405.888000", "201405.890000", "201405.893000", "201405.896000", "201405.899000", "201405.902000", "201405.905000", "201505.804000", "201505.807000", "201505.810000", "201505.812000", "201505.815000", "201505.818000", "201505.820000", "201505.823000", "201505.826000", "201505.828000", "201505.831000", "201505.834000", "201505.837000", "201505.839000", "201505.842000", "201505.845000", "201505.848000", "201505.850000", "201505.853000", "201505.856000", "201505.859000", "201505.861000", "201505.864000", "201505.867000", "201605.805000", "201605.808000", "201605.811000", "201605.814000", "201605.816000", "201605.819000", "201605.822000", "201605.825000", "201605.827000", "201605.830000", "201605.833000", "201605.835000", "201605.838000", "201605.841000", "201605.844000", "201605.846000", "201605.849000", "201605.852000", "201605.854000", "201605.857000", "201605.860000", "201605.863000", "201605.865000", "201605.868000", "201705.818000", "201705.821000", "201705.824000", "201705.826000", "201705.829000", "201705.832000", "201705.835000", "201705.837000", "201705.840000", "201705.843000", "201705.846000", "201705.848000", "201705.851000", "201705.854000", "201705.857000", "201705.859000", "201705.862000", "201705.865000", "201705.868000", "201705.870000", "201705.873000", "201705.876000", "201705.879000", "201705.881000", "201803.764000", "201803.767000", "201803.770000", "201803.773000", "201803.776000", "201803.779000", "201803.782000", "201803.785000", "201803.787000", "201803.790000", "201803.793000", "201803.796000", "201803.799000", "201803.801000", "201803.804000", "201803.807000", "201803.810000", "201803.813000", "201803.816000", "201803.819000", "201803.822000", "201803.825000", "201803.828000", "201803.832000"],
      "InstanceCreationTime": ["201405.835000", "201405.839000", "201405.841000", "201405.844000", "201405.847000", "201405.850000", "201405.852000", "201405.855000", "201405.858000", "201405.861000", "201405.863000", "201405.866000", "201405.869000", "201405.872000", "201405.874000", "201405.877000", "201405.880000", "201405.882000", "201405.885000", "201405.888000", "201405.890000", "201405.893000", "201405.896000", "201405.899000", "201405.902000", "201405.905000", "201505.804000", "201505.807000", "201505.810000", "201505.812000", "201505.815000", "201505.818000", "201505.820000", "201505.823000", "201505.826000", "201505.828000", "201505.831000", "201505.834000", "201505.837000", "201505.839000", "201505.842000", "201505.845000", "201505.848000", "201505.850000", "201505.853000", "201505.856000", "201505.859000", "201505.861000", "201505.864000", "201505.867000", "201605.805000", "201605.808000", "201605.811000", "201605.814000", "201605.816000", "201605.819000", "201605.822000", "201605.825000", "201605.827000", "201605.830000", "201605.833000", "201605.835000", "201605.838000", "201605.841000", "201605.844000", "201605.846000", "201605.849000", "201605.852000", "201605.854000", "201605.857000", "201605.860000", "201605.863000", "201605.865000", "201605.868000", "201705.818000", "201705.821000", "201705.824000", "201705.826000", "201705.829000", "201705.832000", "201705.835000", "201705.837000", "201705.840000", "201705.843000", "201705.846000", "201705.848000", "201705.851000", "201705.854000", "201705.857000", "201705.859000", "201705.862000", "201705.865000", "201705.868000", "201705.870000", "201705.873000", "201705.876000", "201705.879000", "201705.881000", "201803.764000", "201803.767000", "201803.770000", "201803.773000", "201803.776000", "201803.779000", "201803.782000", "201803.785000", "201803.787000", "201803.790000", "201803.793000", "201803.796000", "201803.799000", "201803.801000", "201803.804000", "201803.807000", "201803.810000", "201803.813000", "201803.816000", "201803.819000", "201803.822000", "201803.825000", "201803.828000", "201803.832000"],
      "InstanceNumber": [1, 2, 3, 4, 5, 6, 7, 8, 9, 10, 11, 12, 13, 14, 15, 16, 17, 18, 19, 20, 21, 22, 23, 24, 25, 26, 27, 28, 29, 30, 31, 32, 33, 34, 35, 36, 37, 38, 39, 40, 41, 42, 43, 44, 45, 46, 47, 48, 49, 50, 51, 52, 53, 54, 55, 56, 57, 58, 59, 60, 61, 62, 63, 64, 65, 66, 67, 68, 69, 70, 71, 72, 73, 74, 75, 76, 77, 78, 79, 80, 81, 82, 83, 84, 85, 86, 87, 88, 89, 90, 91, 92, 93, 94, 95, 96, 97, 98, 99, 100, 101, 102, 103, 104, 105, 106, 107, 108, 109, 110, 111, 112, 113, 114, 115, 116, 117, 118, 119, 120, 121, 122],
      "LargestImagePixelValue": [2269, 2627, 2594, 2073, 2049, 2164, 2369, 2003, 1993, 2053, 2168, 2177, 1960, 2186, 2199, 2186, 1993, 2031, 2229, 2094, 1956, 2026, 1981, 2007, 2009, 1916, 2038, 2041, 2206, 1962, 1971, 1985, 2014, 1959, 2524, 2236, 2275, 1979, 2526, 2371, 2066, 2256, 2205, 2140, 1972, 1997, 1978, 2086, 2150, 2283, 2107, 1923, 1921, 1938, 2121, 2286, 2473, 1994, 2136, 2440, 2223, 2152, 2374, 2065, 1974, 2134, 2382, 2294, 2068, 1991, 1905, 1937, 2140, 2689, 2047, 2036, 2768, 2446, 2111, 1934, 1898, 1954, 1959, 2003, 1930, 2130, 2006, 1893, 1897, 1956, 2966, 2275, 1963, 1906, 1880, 1830, 1917, 1959, 2047, 2770, 2584, 2117, 2165, 2143, 2028, 1876, 1868, 1927, 2249, 2090, 2154, 3191, 1976, 1883, 2083, 2108, 1926, 1899, 1992, 2214, 1972, 1874],
      "WindowCenter": [741.0, 739.0, 739.0, 738.0, 737.0, 738.0, 738.0, 736.0, 737.0, 737.0, 737.0, 738.0, 737.0, 737.0, 737.0, 738.0, 737.0, 737.0, 737.0, 738.0, 737.0, 736.0, 737.0, 737.0, 737.0, 737.0, 737.0, 737.0, 738.0, 737.0, 737.0, 736.0, 737.0, 737.0, 738.0, 737.0, 739.0, 737.0, 737.0, 737.0, 736.0, 737.0, 736.0, 736.0, 735.0, 735.0, 735.0, 737.0, 738.0, 739.0, 740.0, 739.0, 737.0, 737.0, 737.0, 738.0, 738.0, 737.0, 738.0, 739.0, 738.0, 737.0, 737.0, 736.0, 736.0, 736.0, 737.0, 738.0, 737.0, 736.0, 737.0, 737.0, 737.0, 738.0, 736.0, 737.0, 738.0, 737.0, 737.0, 736.0, 736.0, 736.0, 737.0, 737.0, 737.0, 738.0, 737.0, 736.0, 736.0, 736.0, 739.0, 737.0, 736.0, 736.0, 736.0, 736.0, 736.0, 736.0, 736.0, 738.0, 737.0, 735.0, 736.0, 736.0, 736.0, 736.0, 736.0, 735.0, 736.0, 736.0, 736.0, 738.0, 735.0, 735.0, 736.0, 736.0, 736.0, 736.0, 736.0, 737.0, 737.0, 736.0],
      "WindowWidth": [1591.0, 1586.0, 1584.0, 1581.0, 1581.0, 1582.0, 1582.0, 1578.0, 1579.0, 1579.0, 1579.0, 1582.0, 1579.0, 1579.0, 1580.0, 1582.0, 1579.0, 1580.0, 1580.0, 1581.0, 1579.0, 1577.0, 1578.0, 1579.0, 1580.0, 1579.0, 1581.0, 1580.0, 1582.0, 1579.0, 1579.0, 1577.0, 1580.0, 1580.0, 1583.0, 1580.0, 1586.0, 1579.0, 1581.0, 1579.0, 1577.0, 1579.0, 1577.0, 1577.0, 1574.0, 1575.0, 1576.0, 1579.0, 1582.0, 1585.0, 1586.0, 1584.0, 1580.0, 1579.0, 1580.0, 1582.0, 1583.0, 1580.0, 1581.0, 1583.0, 1581.0, 1580.0, 1580.0, 1576.0, 1577.0, 1578.0, 1580.0, 1581.0, 1580.0, 1578.0, 1578.0, 1580.0, 1581.0, 1582.0, 1577.0, 1579.0, 1584.0, 1580.0, 1579.0, 1578.0, 1576.0, 1577.0, 1578.0, 1579.0, 1580.0, 1581.0, 1579.0, 1576.0, 1576.0, 1577.0, 1585.0, 1579.0, 1576.0, 1576.0, 1576.0, 1576.0, 1577.0, 1578.0, 1578.0, 1582.0, 1579.0, 1575.0, 1576.0, 1577.0, 1576.0, 1576.0, 1576.0, 1574.0, 1576.0, 1577.0, 1577.0, 1583.0, 1573.0, 1574.0, 1576.0, 1578.0, 1576.0, 1576.0, 1576.0, 1580.0, 1579.0, 1577.0]
    },
    "slices": {}
  }
}