{
  "AcquisitionMatrixPE": 72,
  "AcquisitionNumber": 1,
  "AcquisitionTime": "17:09:38.875000",
  "BandwidthPerPixelPhaseEncode": 24.366,
  "BaseResolution": 72,
  "BodyPartExamined": "BRAIN",
  "CoilCombinationMethod": "Sum of Squares",
  "ConsistencyInfo": "N4_VE11C_LATEST_20160120",
  "ConversionSoftware": "dcm2niix",
  "ConversionSoftwareVersion": "v1.0.20220720",
  "DerivedVendorReportedEchoSpacing": 0.000570011,
  "DeviceSerialNumber": "45219",
  "DwellTime": 3.5e-06,
  "EchoTime": 0.03,
  "EchoTrainLength": 72,
  "EffectiveEchoSpacing": 0.000570011,
  "FlipAngle": 80,
  "HeudiconvVersion": "1.1.6",
  "ImageOrientationPatientDICOM": [0.999482, -0.0321679, 0.000743698, 0.03141, 0.980428, 0.194354],
  "ImageOrientationText": "Tra>Cor(11.2)>Sag(0.4)",
  "ImageType": [
    "ORIGINAL",
    "PRIMARY",
    "M",
    "ND",
    "NORM",
    "MOSAIC"
],
  "ImagingFrequency": 123.182,
  "InPlanePhaseEncodingDirectionDICOM": "COL",
  "InstitutionAddress": "First Avenue 660,New York,NYC,US,10016",
  "InstitutionName": "NYU LANGONE CBI",
  "InstitutionalDepartmentName": "Department",
  "MRAcquisitionType": "2D",
  "MagneticFieldStrength": 3,
  "Manufacturer": "Siemens",
  "ManufacturersModelName": "Skyra",
  "MatrixCoilMode": "SENSE",
  "Modality": "MR",
  "NonlinearGradientCorrection": false,
  "PartialFourier": 1,
  "PatientPosition": "HFS",
  "PercentPhaseFOV": 100,
  "PercentSampling": 100,
  "PhaseEncodingDirection": "j-",
  "PhaseEncodingSteps": 72,
  "PhaseResolution": 1,
  "PixelBandwidth": 1985,
  "ProcedureStepDescription": "MRI BRAIN WITHOUT IV CONTRAST",
  "ProtocolName": "TASK_CD",
  "PulseSequenceDetails": "%SiemensSeq%\\ep2d_bold",
  "ReceiveCoilActiveElements": "HE1-4",
  "ReceiveCoilName": "HeadNeck_20",
  "ReconMatrixPE": 72,
  "RepetitionTime": 2.5,
  "SAR": 0.133971,
  "ScanOptions": "FS",
  "ScanningSequence": "EP",
  "SequenceName": "*epfid2d1_72",
  "SequenceVariant": "SK",
  "SeriesDescription": "TASK_CD",
  "SeriesNumber": 7,
  "ShimSetting": [-893, -7043, 5058, 454, -184, 51, 313, -199],
  "SliceThickness": 3,
  "SliceTiming": [1.24, 0, 1.305, 0.065, 1.37, 0.13, 1.435, 0.195, 1.5025, 0.2625, 1.5675, 0.3275, 1.6325, 0.3925, 1.6975, 0.4575, 1.7625, 0.5225, 1.8275, 0.5875, 1.8925, 0.6525, 1.9575, 0.7175, 2.0225, 0.7825, 2.09, 0.85, 2.155, 0.915, 2.22, 0.98, 2.285, 1.045, 2.35, 1.11, 2.415, 1.175],
  "SoftwareVersions": "syngo MR E11",
  "SpacingBetweenSlices": 3,
  "StationName": "MRC45219",
  "TaskName": "cd",
  "TotalReadoutTime": 0.0404708,
  "TxRefAmp": 435.014,
  "dcmmeta_affine": [
    [-2.9984467029571533, 0.09423010051250458, 0.020943274721503258, 103.44425201416016],
    [0.09650365263223648, 2.9412853717803955, 0.5826893448829651, -118.09358215332031],
    [0.0022310924250632524, -0.5830613374710083, 2.942793607711792, -16.730422973632812],
    [0.0, 0.0, 0.0, 1.0]
],
  "dcmmeta_reorient_transform": [
    [0.0, -1.0, 0.0, 71.0],
    [1.0, 0.0, 0.0, 0.0],
    [0.0, 0.0, 1.0, 0.0],
    [0.0, 0.0, 0.0, 1.0]
],
  "dcmmeta_shape": [72, 72, 38, 132],
  "dcmmeta_slice_dim": 2,
  "dcmmeta_version": 0.6,
  "global": {
    "const": {
      "AcquisitionMatrix": [72, 0, 0, 72],
      "AngioFlag": "N",
      "BitsAllocated": 16,
      "BitsStored": 12,
      "BodyPartExamined": "BRAIN",
      "Columns": 504,
      "CountryOfResidence": "United States of America [1]",
      "EchoNumbers": 1,
      "EchoTime": 30.0,
      "EchoTrainLength": 72,
      "FlipAngle": 80.0,
      "HighBit": 11,
      "ImageOrientationPatient": [0.9994822030349, -0.0321678835256, 0.00074369750352, 0.03141003295084, 0.98042848635623, 0.19435378301247],
      "ImagePositionPatient": [-778.15275711935, -705.2105534215, -184.55094624665],
      "ImageType": [
        "ORIGINAL",
        "PRIMARY",
        "M",
        "ND",
        "NORM",
        "MOSAIC"
],
      "ImagedNucleus": "1H",
      "ImagingFrequency": 123.181935,
      "InPlanePhaseEncodingDirection": "COL",
      "MRAcquisitionType": "2D",
      "MagneticFieldStrength": 3.0,
      "Manufacturer": "SIEMENS",
      "ManufacturerModelName": "Skyra",
      "Modality": "MR",
      "NumberOfAverages": 1.0,
      "NumberOfPhaseEncodingSteps": 72,
      "PercentPhaseFieldOfView": 100.0,
      "PercentSampling": 100.0,
      "PerformedProcedureStepStartTime": "165623.382000",
      "PhotometricInterpretation": "MONOCHROME2",
      "PixelBandwidth": 1985.0,
      "PixelRepresentation": 0,
      "PixelSpacing": [3.0, 3.0],
      "PregnancyStatus": 4,
      "ProcedureCodeSequence": [
        {
          "CodeMeaning": "MRI BRAIN WITHOUT IV CONTRAST",
          "CodeValue": "IMG269",
          "CodingSchemeDesignator": "L"
        }
],
      "ProtocolName": "TASK_CD",
      "RepetitionTime": 2500.0,
      "RequestAttributesSequence": [
        {
          "RequestedProcedureID": "305297747",
          "ScheduledProcedureStepDescription": "MRI BRAIN WITHOUT IV CONTRAST",
          "ScheduledProcedureStepID": "E9198076",
          "ScheduledProtocolCodeSequence": [
            {
              "CodeMeaning": "MRI BRAIN WITHOUT IV CONTRAST",
              "CodeValue": "651061",
              "CodingSchemeDesignator": "L"
            }
]
        }
],
      "RequestedProcedureCodeSequence": [
        {
          "CodeMeaning": "MRI BRAIN WITHOUT IV CONTRAST",
          "CodeValue": "IMG269",
          "CodingSchemeDesignator": "L"
        }
],
      "Rows": 504,
      "SAR": 0.13397088180132,
      "SamplesPerPixel": 1,
      "ScanOptions": "FS",
      "ScanningSequence": "EP",
      "SequenceName": "*epfid2d1_72",
      "SequenceVariant": "SK",
      "SeriesDescription": "TASK_CD",
      "SeriesNumber": 7,
      "SeriesTime": "171043.451000",
      "SliceLocation": -38.626532353645,
      "SliceThickness": 3.0,
      "SmallestImagePixelValue": 0,
      "SmokingStatus": "UNKNOWN",
      "SoftwareVersions": "syngo MR E11",
      "SpacingBetweenSlices": 2.9999999059954,
      "SpecificCharacterSet": "ISO_IR 100",
      "StudyTime": "165623.213000",
      "TransmitCoilName": "Body",
      "VariableFlipAngleFlag": "N",
      "WindowCenterWidthExplanation": "Algo1",
      "dBdt": 0.0},
    "slices": {}
  },
  "time": {
    "samples": {
      "AcquisitionNumber": [1, 2, 3, 4, 5, 6, 7, 8, 9, 10, 11, 12, 13, 14, 15, 16, 17, 18, 19, 20, 21, 22, 23, 24, 25, 26, 27, 28, 29, 30, 31, 32, 33, 34, 35, 36, 37, 38, 39, 40, 41, 42, 43, 44, 45, 46, 47, 48, 49, 50, 51, 52, 53, 54, 55, 56, 57, 58, 59, 60, 61, 62, 63, 64, 65, 66, 67, 68, 69, 70, 71, 72, 73, 74, 75, 76, 77, 78, 79, 80, 81, 82, 83, 84, 85, 86, 87, 88, 89, 90, 91, 92, 93, 94, 95, 96, 97, 98, 99, 100, 101, 102, 103, 104, 105, 106, 107, 108, 109, 110, 111, 112, 113, 114, 115, 116, 117, 118, 119, 120, 121, 122, 123, 124, 125, 126, 127, 128, 129, 130, 131, 132],
      "AcquisitionTime": ["170938.875000", "170941.375000", "170943.875000", "170946.375000", "170948.875000", "170951.375000", "170953.875000", "170956.375000", "170958.875000", "171001.375000", "171003.875000", "171006.375000", "171008.875000", "171011.375000", "171013.875000", "171016.375000", "171018.875000", "171021.375000", "171023.875000", "171026.375000", "171028.875000", "171031.375000", "171033.875000", "171036.375000", "171038.875000", "171041.375000", "171043.875000", "171046.375000", "171048.875000", "171051.375000", "171053.875000", "171056.375000", "171058.875000", "171101.375000", "171103.875000", "171106.375000", "171108.875000", "171111.375000", "171113.875000", "171116.375000", "171118.875000", "171121.375000", "171123.875000", "171126.375000", "171128.875000", "171131.375000", "171133.875000", "171136.375000", "171138.875000", "171141.375000", "171143.875000", "171146.375000", "171148.875000", "171151.375000", "171153.875000", "171156.375000", "171158.875000", "171201.375000", "171203.875000", "171206.375000", "171208.875000", "171211.375000", "171213.875000", "171216.375000", "171218.875000", "171221.375000", "171223.875000", "171226.375000", "171228.875000", "171231.375000", "171233.875000", "171236.375000", "171238.875000", "171241.375000", "171243.875000", "171246.375000", "171248.875000", "171251.375000", "171253.875000", "171256.375000", "171258.875000", "171301.375000", "171303.875000", "171306.375000", "171308.875000", "171311.375000", "171313.875000", "171316.375000", "171318.875000", "171321.375000", "171323.875000", "171326.375000", "171328.875000", "171331.375000", "171333.875000", "171336.375000", "171338.875000", "171341.375000", "171343.875000", "171346.375000", "171348.875000", "171351.375000", "171353.875000", "171356.375000", "171358.875000", "171401.375000", "171403.875000", "171406.375000", "171408.875000", "171411.375000", "171413.875000", "171416.375000", "171418.875000", "171421.375000", "171423.875000", "171426.375000", "171428.875000", "171431.375000", "171433.875000", "171436.375000", "171438.875000", "171441.375000", "171443.875000", "171446.375000", "171448.875000", "171451.375000", "171453.875000", "171456.375000", "171458.875000", "171501.375000", "171503.875000", "171506.375000"],
      "ContentTime": ["171043.455000", "171043.459000", "171043.461000", "171043.464000", "171043.466000", "171043.469000", "171043.472000", "171043.475000", "171043.485000", "171043.488000", "171043.490000", "171043.493000", "171043.496000", "171043.498000", "171043.501000", "171043.504000", "171043.506000", "171043.509000", "171043.512000", "171043.514000", "171043.517000", "171043.520000", "171043.523000", "171043.525000", "171043.528000", "171043.531000", "171143.450000", "171143.452000", "171143.455000", "171143.458000", "171143.461000", "171143.463000", "171143.466000", "171143.469000", "171143.471000", "171143.474000", "171143.477000", "171143.479000", "171143.482000", "171143.485000", "171143.487000", "171143.490000", "171143.493000", "171143.495000", "171143.498000", "171143.506000", "171143.509000", "171143.512000", "171143.514000", "171143.517000", "171243.450000", "171243.452000", "171243.455000", "171243.458000", "171243.461000", "171243.463000", "171243.466000", "171243.469000", "171243.471000", "171243.474000", "171243.477000", "171243.480000", "171243.482000", "171243.485000", "171243.488000", "171243.490000", "171243.493000", "171243.495000", "171243.498000", "171243.501000", "171243.503000", "171243.506000", "171243.509000", "171243.511000", "171303.450000", "171303.453000", "171303.455000", "171303.458000", "171303.461000", "171303.464000", "171303.466000", "171303.469000", "171403.450000", "171403.452000", "171403.455000", "171403.458000", "171403.461000", "171403.463000", "171403.466000", "171403.468000", "171403.471000", "171403.474000", "171403.476000", "171403.479000", "171403.482000", "171403.484000", "171403.487000", "171403.490000", "171403.492000", "171403.495000", "171403.498000", "171403.500000", "171403.503000", "171403.506000", "171403.508000", "171403.511000", "171503.450000", "171503.452000", "171503.455000", "171503.458000", "171503.461000", "171503.463000", "171503.466000", "171503.469000", "171503.471000", "171503.474000", "171503.476000", "171503.479000", "171503.482000", "171503.485000", "171503.487000", "171503.490000", "171503.493000", "171503.495000", "171503.498000", "171503.501000", "171503.503000", "171503.506000", "171503.508000", "171503.511000", "171508.263000", "171508.266000"],
      "InstanceCreationTime": ["171043.455000", "171043.459000", "171043.461000", "171043.464000", "171043.466000", "171043.469000", "171043.472000", "171043.475000", "171043.485000", "171043.488000", "171043.490000", "171043.493000", "171043.496000", "171043.498000", "171043.501000", "171043.504000", "171043.506000", "171043.509000", "171043.512000", "171043.514000", "171043.517000", "171043.520000", "171043.523000", "171043.525000", "171043.528000", "171043.531000", "171143.450000", "171143.452000", "171143.455000", "171143.458000", "171143.461000", "171143.463000", "171143.466000", "171143.469000", "171143.471000", "171143.474000", "171143.477000", "171143.479000", "171143.482000", "171143.485000", "171143.487000", "171143.490000", "171143.493000", "171143.495000", "171143.498000", "171143.506000", "171143.509000", "171143.512000", "171143.514000", "171143.517000", "171243.450000", "171243.452000", "171243.455000", "171243.458000", "171243.461000", "171243.463000", "171243.466000", "171243.469000", "171243.471000", "171243.474000", "171243.477000", "171243.480000", "171243.482000", "171243.485000", "171243.488000", "171243.490000", "171243.493000", "171243.495000", "171243.498000", "171243.501000", "171243.503000", "171243.506000", "171243.509000", "171243.511000", "171303.450000", "171303.453000", "171303.455000", "171303.458000", "171303.461000", "171303.464000", "171303.466000", "171303.469000", "171403.450000", "171403.452000", "171403.455000", "171403.458000", "171403.461000", "171403.463000", "171403.466000", "171403.468000", "171403.471000", "171403.474000", "171403.476000", "171403.479000", "171403.482000", "171403.484000", "171403.487000", "171403.490000", "171403.492000", "171403.495000", "171403.498000", "171403.500000", "171403.503000", "171403.506000", "171403.508000", "171403.511000", "171503.450000", "171503.452000", "171503.455000", "171503.458000", "171503.461000", "171503.463000", "171503.466000", "171503.469000", "171503.471000", "171503.474000", "171503.476000", "171503.479000", "171503.482000", "171503.485000", "171503.487000", "171503.490000", "171503.493000", "171503.495000", "171503.498000", "171503.501000", "171503.503000", "171503.506000", "171503.508000", "171503.511000", "171508.263000", "171508.266000"],
      "InstanceNumber": [1, 2, 3, 4, 5, 6, 7, 8, 9, 10, 11, 12, 13, 14, 15, 16, 17, 18, 19, 20, 21, 22, 23, 24, 25, 26, 27, 28, 29, 30, 31, 32, 33, 34, 35, 36, 37, 38, 39, 40, 41, 42, 43, 44, 45, 46, 47, 48, 49, 50, 51, 52, 53, 54, 55, 56, 57, 58, 59, 60, 61, 62, 63, 64, 65, 66, 67, 68, 69, 70, 71, 72, 73, 74, 75, 76, 77, 78, 79, 80, 81, 82, 83, 84, 85, 86, 87, 88, 89, 90, 91, 92, 93, 94, 95, 96, 97, 98, 99, 100, 101, 102, 103, 104, 105, 106, 107, 108, 109, 110, 111, 112, 113, 114, 115, 116, 117, 118, 119, 120, 121, 122, 123, 124, 125, 126, 127, 128, 129, 130, 131, 132],
      "LargestImagePixelValue": [1811, 1849, 1742, 1733, 1860, 1691, 1770, 1814, 2293, 2167, 1843, 1801, 1801, 1815, 1822, 1780, 1795, 1831, 1977, 1979, 1863, 1767, 1738, 1892, 1700, 1699, 1734, 2205, 2097, 2238, 1767, 1775, 2218, 2212, 1836, 1837, 1740, 1713, 1854, 1817, 1931, 1821, 1851, 1828, 2008, 1865, 1823, 1830, 1838, 1845, 1816, 1836, 1819, 1849, 1810, 1678, 1730, 2142, 1953, 1923, 1806, 1829, 1850, 1792, 1748, 1780, 1752, 1890, 1970, 1809, 1830, 1820, 1828, 1865, 1876, 1816, 1751, 1860, 1855, 1766, 1733, 1797, 1819, 1780, 1796, 1786, 1810, 1835, 1863, 1866, 2177, 1769, 1749, 1764, 2023, 1701, 1745, 1744, 2129, 1994, 1830, 1857, 1851, 1825, 1850, 1864, 2036, 1752, 1777, 1805, 1961, 1808, 1819, 1784, 1771, 1754, 1752, 1771, 1805, 1828, 1839, 1808, 1814, 1831, 1827, 1826, 1968, 1806, 1767, 1793, 2037, 1857],
      "WindowCenter": [664.0, 663.0, 663.0, 664.0, 664.0, 665.0, 665.0, 665.0, 666.0, 665.0, 664.0, 664.0, 664.0, 665.0, 665.0, 665.0, 665.0, 665.0, 665.0, 665.0, 664.0, 663.0, 664.0, 664.0, 664.0, 666.0, 665.0, 667.0, 665.0, 665.0, 662.0, 663.0, 665.0, 664.0, 662.0, 662.0, 661.0, 663.0, 666.0, 665.0, 665.0, 664.0, 664.0, 664.0, 664.0, 664.0, 664.0, 664.0, 664.0, 664.0, 664.0, 664.0, 664.0, 665.0, 664.0, 665.0, 666.0, 667.0, 665.0, 664.0, 664.0, 664.0, 664.0, 664.0, 664.0, 665.0, 664.0, 665.0, 665.0, 664.0, 664.0, 664.0, 664.0, 664.0, 664.0, 664.0, 664.0, 664.0, 663.0, 664.0, 664.0, 664.0, 664.0, 663.0, 664.0, 663.0, 664.0, 664.0, 664.0, 665.0, 665.0, 664.0, 665.0, 665.0, 666.0, 662.0, 665.0, 665.0, 666.0, 665.0, 664.0, 665.0, 665.0, 665.0, 665.0, 665.0, 664.0, 664.0, 664.0, 664.0, 664.0, 663.0, 664.0, 664.0, 664.0, 664.0, 665.0, 665.0, 665.0, 664.0, 664.0, 664.0, 664.0, 664.0, 665.0, 665.0, 665.0, 664.0, 665.0, 665.0, 665.0, 664.0],
      "WindowWidth": [1407.0, 1404.0, 1404.0, 1405.0, 1407.0, 1407.0, 1409.0, 1408.0, 1410.0, 1407.0, 1405.0, 1406.0, 1406.0, 1407.0, 1407.0, 1407.0, 1408.0, 1408.0, 1408.0, 1407.0, 1405.0, 1404.0, 1406.0, 1406.0, 1407.0, 1410.0, 1409.0, 1411.0, 1409.0, 1407.0, 1402.0, 1404.0, 1407.0, 1405.0, 1401.0, 1402.0, 1399.0, 1405.0, 1410.0, 1408.0, 1408.0, 1406.0, 1406.0, 1405.0, 1406.0, 1405.0, 1405.0, 1406.0, 1407.0, 1406.0, 1405.0, 1407.0, 1406.0, 1407.0, 1405.0, 1408.0, 1409.0, 1411.0, 1408.0, 1406.0, 1405.0, 1405.0, 1406.0, 1406.0, 1407.0, 1408.0, 1407.0, 1408.0, 1407.0, 1406.0, 1407.0, 1406.0, 1405.0, 1406.0, 1407.0, 1406.0, 1405.0, 1405.0, 1405.0, 1405.0, 1406.0, 1406.0, 1406.0, 1404.0, 1405.0, 1404.0, 1406.0, 1406.0, 1406.0, 1407.0, 1407.0, 1405.0, 1407.0, 1407.0, 1409.0, 1402.0, 1408.0, 1409.0, 1410.0, 1408.0, 1406.0, 1407.0, 1407.0, 1407.0, 1408.0, 1407.0, 1406.0, 1405.0, 1406.0, 1406.0, 1406.0, 1404.0, 1405.0, 1405.0, 1406.0, 1407.0, 1407.0, 1408.0, 1407.0, 1406.0, 1406.0, 1405.0, 1406.0, 1407.0, 1407.0, 1408.0, 1407.0, 1406.0, 1408.0, 1408.0, 1408.0, 1404.0]
    },
    "slices": {}
  }
}