{
  "AcquisitionMatrixPE": 72,
  "AcquisitionNumber": 1,
  "AcquisitionTime": "20:15:1.042500",
  "BandwidthPerPixelPhaseEncode": 24.366,
  "BaseResolution": 72,
  "BodyPartExamined": "BRAIN",
  "CoilCombinationMethod": "Sum of Squares",
  "ConsistencyInfo": "N4_VE11C_LATEST_20160120",
  "ConversionSoftware": "dcm2niix",
  "ConversionSoftwareVersion": "v1.0.20220720",
  "DerivedVendorReportedEchoSpacing": 0.000570011,
  "DeviceSerialNumber": "45219",
  "DwellTime": 3.5e-06,
  "EchoTime": 0.03,
  "EchoTrainLength": 72,
  "EffectiveEchoSpacing": 0.000570011,
  "FlipAngle": 80,
  "HeudiconvVersion": "1.1.6",
  "ImageComments": "Reference volume for motion correction.",
  "ImageOrientationPatientDICOM": [0.999931, 0.0113811, 0.00274573, -0.0104716, 0.974304, -0.224992],
  "ImageOrientationText": "Tra>Cor(-13.0)>Sag(0.3)",
  "ImageType": [
    "ORIGINAL",
    "PRIMARY",
    "M",
    "ND",
    "NORM",
    "MOCO",
    "MOSAIC"
],
  "ImagingFrequency": 123.182,
  "InPlanePhaseEncodingDirectionDICOM": "COL",
  "InstitutionAddress": "First Avenue 660,New York,NYC,US,10016",
  "InstitutionName": "NYU LANGONE CBI",
  "InstitutionalDepartmentName": "Department",
  "MRAcquisitionType": "2D",
  "MagneticFieldStrength": 3,
  "Manufacturer": "Siemens",
  "ManufacturersModelName": "Skyra",
  "MatrixCoilMode": "SENSE",
  "Modality": "MR",
  "NonlinearGradientCorrection": false,
  "PartialFourier": 1,
  "PatientPosition": "HFS",
  "PercentPhaseFOV": 100,
  "PercentSampling": 100,
  "PhaseEncodingDirection": "j-",
  "PhaseEncodingSteps": 72,
  "PhaseResolution": 1,
  "PixelBandwidth": 1985,
  "ProcedureStepDescription": "MRI BRAIN WITHOUT IV CONTRAST",
  "ProtocolName": "TASK_CD_MoCo",
  "PulseSequenceDetails": "%SiemensSeq%\\ep2d_bold",
  "ReceiveCoilActiveElements": "HE1-4",
  "ReceiveCoilName": "HeadNeck_20",
  "ReconMatrixPE": 72,
  "RepetitionTime": 2.5,
  "SAR": 0.100176,
  "ScanOptions": "FS",
  "ScanningSequence": "EP",
  "SequenceName": "*epfid2d1_72",
  "SequenceVariant": "SK",
  "SeriesDescription": "MoCoSeries",
  "SeriesNumber": 13,
  "ShimSetting": [-894, -6952, 5129, 388, -266, -49, 314, -75],
  "SliceThickness": 3,
  "SliceTiming": [1.24, 0, 1.305, 0.0675, 1.3725, 0.1325, 1.4375, 0.1975, 1.5025, 0.2625, 1.5675, 0.3275, 1.6325, 0.3925, 1.6975, 0.4575, 1.7625, 0.5225, 1.8275, 0.5875, 1.8925, 0.6525, 1.96, 0.72, 2.025, 0.785, 2.09, 0.85, 2.155, 0.915, 2.22, 0.98, 2.285, 1.045, 2.35, 1.11, 2.415, 1.175],
  "SoftwareVersions": "syngo MR E11",
  "SpacingBetweenSlices": 3,
  "StationName": "MRC45219",
  "TaskName": "cd",
  "TotalReadoutTime": 0.0404708,
  "TxRefAmp": 396.136,
  "dcmmeta_affine": [
    [-2.9997944831848145, -0.031414944678545, 0.015707524493336678, 110.57144927978516],
    [-0.03414343297481537, 2.922913074493408, -0.6748436093330383, -110.99484252929688],
    [0.008237183094024658, 0.674976110458374, 2.923070192337036, -46.76047134399414],
    [0.0, 0.0, 0.0, 1.0]
],
  "dcmmeta_reorient_transform": [
    [0.0, -1.0, 0.0, 71.0],
    [1.0, 0.0, 0.0, 0.0],
    [0.0, 0.0, 1.0, 0.0],
    [0.0, 0.0, 0.0, 1.0]
],
  "dcmmeta_shape": [72, 72, 38, 132],
  "dcmmeta_slice_dim": 2,
  "dcmmeta_version": 0.6,
  "global": {
    "const": {
      "AcquisitionMatrix": [72, 0, 0, 72],
      "AngioFlag": "N",
      "BitsAllocated": 16,
      "BitsStored": 12,
      "BodyPartExamined": "BRAIN",
      "Columns": 504,
      "CountryOfResidence": "United States of America [1]",
      "EchoNumbers": 1,
      "EchoTime": 30.0,
      "EchoTrainLength": 72,
      "FlipAngle": 80.0,
      "HighBit": 11,
      "ImageOrientationPatient": [0.99993146291964, 0.01138114415799, 0.00274572778138, -0.0104716487998, 0.97430432824137, -0.2249920455073],
      "ImagePositionPatient": [-749.51094858382, -735.25616475049, 145.17844683738],
      "ImageType": [
        "ORIGINAL",
        "PRIMARY",
        "M",
        "ND",
        "NORM",
        "MOCO",
        "MOSAIC"
],
      "ImagedNucleus": "1H",
      "ImagingFrequency": 123.181951,
      "InPlanePhaseEncodingDirection": "COL",
      "MRAcquisitionType": "2D",
      "MagneticFieldStrength": 3.0,
      "Manufacturer": "SIEMENS",
      "ManufacturerModelName": "Skyra",
      "Modality": "MR",
      "NumberOfAverages": 1.0,
      "NumberOfPhaseEncodingSteps": 72,
      "PercentPhaseFieldOfView": 100.0,
      "PercentSampling": 100.0,
      "PerformedProcedureStepStartTime": "194811.552000",
      "PhotometricInterpretation": "MONOCHROME2",
      "PixelBandwidth": 1985.0,
      "PixelRepresentation": 0,
      "PixelSpacing": [3.0, 3.0],
      "PregnancyStatus": 4,
      "ProcedureCodeSequence": [
        {
          "CodeMeaning": "MRI BRAIN WITHOUT IV CONTRAST",
          "CodeValue": "IMG269",
          "CodingSchemeDesignator": "L"
        }
],
      "ProtocolName": "TASK_CD",
      "RepetitionTime": 2500.0,
      "RequestAttributesSequence": [
        {
          "ScheduledProcedureStepDescription": "MRI BRAIN WITHOUT IV CONTRAST",
          "ScheduledProcedureStepID": "E9597465",
          "ScheduledProtocolCodeSequence": [
            {
              "CodeMeaning": "MRI BRAIN WITHOUT IV CONTRAST",
              "CodeValue": "651061",
              "CodingSchemeDesignator": "L"
            }
]
        }
],
      "RequestedProcedureCodeSequence": [
        {
          "CodeMeaning": "MRI BRAIN WITHOUT IV CONTRAST",
          "CodeValue": "IMG269",
          "CodingSchemeDesignator": "L"
        }
],
      "Rows": 504,
      "SAR": 0.10017644948335,
      "SamplesPerPixel": 1,
      "ScanOptions": "FS",
      "ScanningSequence": "EP",
      "SequenceName": "*epfid2d1_72",
      "SequenceVariant": "SK",
      "SeriesDescription": "MoCoSeries",
      "SeriesNumber": 13,
      "SeriesTime": "201557.289000",
      "SliceLocation": -20.014392916575,
      "SliceThickness": 3.0,
      "SmallestImagePixelValue": 0,
      "SmokingStatus": "UNKNOWN",
      "SoftwareVersions": "syngo MR E11",
      "SpacingBetweenSlices": 2.9999999887129,
      "SpecificCharacterSet": "ISO_IR 100",
      "StudyTime": "194811.383000",
      "TransmitCoilName": "Body",
      "VariableFlipAngleFlag": "N",
      "WindowCenterWidthExplanation": "Algo1",
      "dBdt": 0.0},
    "slices": {}
  },
  "time": {
    "samples": {
      "AcquisitionNumber": [1, 2, 3, 4, 5, 6, 7, 8, 9, 10, 11, 12, 13, 14, 15, 16, 17, 18, 19, 20, 21, 22, 23, 24, 25, 26, 27, 28, 29, 30, 31, 32, 33, 34, 35, 36, 37, 38, 39, 40, 41, 42, 43, 44, 45, 46, 47, 48, 49, 50, 51, 52, 53, 54, 55, 56, 57, 58, 59, 60, 61, 62, 63, 64, 65, 66, 67, 68, 69, 70, 71, 72, 73, 74, 75, 76, 77, 78, 79, 80, 81, 82, 83, 84, 85, 86, 87, 88, 89, 90, 91, 92, 93, 94, 95, 96, 97, 98, 99, 100, 101, 102, 103, 104, 105, 106, 107, 108, 109, 110, 111, 112, 113, 114, 115, 116, 117, 118, 119, 120, 121, 122, 123, 124, 125, 126, 127, 128, 129, 130, 131, 132],
      "AcquisitionTime": ["201501.042500", "201503.542500", "201506.042500", "201508.542500", "201511.042500", "201513.542500", "201516.042500", "201518.542500", "201521.042500", "201523.542500", "201526.042500", "201528.542500", "201531.042500", "201533.542500", "201536.042500", "201538.542500", "201541.042500", "201543.542500", "201546.042500", "201548.542500", "201551.042500", "201553.542500", "201556.042500", "201558.542500", "201601.042500", "201603.542500", "201606.042500", "201608.542500", "201611.042500", "201613.542500", "201616.042500", "201618.542500", "201621.042500", "201623.542500", "201626.042500", "201628.542500", "201631.042500", "201633.542500", "201636.042500", "201638.542500", "201641.042500", "201643.542500", "201646.042500", "201648.542500", "201651.042500", "201653.542500", "201656.042500", "201658.542500", "201701.042500", "201703.542500", "201706.042500", "201708.542500", "201711.042500", "201713.542500", "201716.042500", "201718.542500", "201721.042500", "201723.542500", "201726.042500", "201728.542500", "201731.042500", "201733.542500", "201736.042500", "201738.542500", "201741.042500", "201743.542500", "201746.042500", "201748.542500", "201751.042500", "201753.542500", "201756.042500", "201758.542500", "201801.042500", "201803.542500", "201806.042500", "201808.542500", "201811.042500", "201813.542500", "201816.042500", "201818.542500", "201821.042500", "201823.542500", "201826.042500", "201828.542500", "201831.042500", "201833.542500", "201836.042500", "201838.542500", "201841.042500", "201843.542500", "201846.042500", "201848.542500", "201851.042500", "201853.542500", "201856.042500", "201858.542500", "201901.042500", "201903.542500", "201906.042500", "201908.542500", "201911.042500", "201913.542500", "201916.042500", "201918.542500", "201921.042500", "201923.542500", "201926.042500", "201928.542500", "201931.042500", "201933.542500", "201936.042500", "201938.542500", "201941.042500", "201943.542500", "201946.042500", "201948.542500", "201951.042500", "201953.542500", "201956.042500", "201958.542500", "202001.042500", "202003.542500", "202006.042500", "202008.542500", "202011.042500", "202013.542500", "202016.042500", "202018.542500", "202021.042500", "202023.542500", "202026.042500", "202028.542500"],
      "ContentTime": ["201557.292000", "201557.295000", "201557.297000", "201557.300000", "201557.303000", "201557.313000", "201557.316000", "201557.319000", "201557.322000", "201557.324000", "201557.327000", "201557.330000", "201557.333000", "201557.335000", "201557.338000", "201557.341000", "201557.344000", "201557.346000", "201557.349000", "201557.352000", "201557.355000", "201557.357000", "201657.285000", "201657.288000", "201657.291000", "201657.294000", "201657.296000", "201657.299000", "201657.302000", "201657.305000", "201657.307000", "201657.310000", "201657.313000", "201657.316000", "201657.319000", "201657.321000", "201657.324000", "201657.327000", "201657.330000", "201657.333000", "201657.335000", "201657.338000", "201657.341000", "201657.343000", "201657.346000", "201657.349000", "201757.316000", "201757.319000", "201757.322000", "201757.324000", "201757.327000", "201757.330000", "201757.333000", "201757.335000", "201757.338000", "201757.341000", "201757.344000", "201757.346000", "201757.349000", "201757.352000", "201757.355000", "201757.357000", "201757.360000", "201757.363000", "201757.366000", "201757.369000", "201757.371000", "201757.374000", "201757.377000", "201757.380000", "201817.231000", "201817.234000", "201817.236000", "201817.239000", "201817.242000", "201817.245000", "201817.247000", "201817.250000", "201917.275000", "201917.278000", "201917.281000", "201917.283000", "201917.286000", "201917.289000", "201917.292000", "201917.294000", "201917.297000", "201917.300000", "201917.303000", "201917.306000", "201917.308000", "201917.311000", "201917.314000", "201917.317000", "201917.319000", "201917.322000", "201917.325000", "201917.327000", "201917.330000", "201917.333000", "201917.336000", "201917.339000", "202017.274000", "202017.463000", "202017.466000", "202017.469000", "202017.471000", "202017.474000", "202017.477000", "202017.480000", "202017.483000", "202017.485000", "202017.488000", "202017.491000", "202017.494000", "202017.496000", "202017.499000", "202017.502000", "202017.518000", "202017.521000", "202017.524000", "202017.527000", "202017.530000", "202017.532000", "202017.535000", "202017.538000", "202030.643000", "202030.647000", "202030.649000", "202030.652000", "202030.655000", "202030.658000"],
      "InstanceCreationTime": ["201557.292000", "201557.295000", "201557.297000", "201557.300000", "201557.303000", "201557.313000", "201557.316000", "201557.319000", "201557.322000", "201557.324000", "201557.327000", "201557.330000", "201557.333000", "201557.335000", "201557.338000", "201557.341000", "201557.344000", "201557.346000", "201557.349000", "201557.352000", "201557.355000", "201557.357000", "201657.285000", "201657.288000", "201657.291000", "201657.294000", "201657.296000", "201657.299000", "201657.302000", "201657.305000", "201657.307000", "201657.310000", "201657.313000", "201657.316000", "201657.319000", "201657.321000", "201657.324000", "201657.327000", "201657.330000", "201657.333000", "201657.335000", "201657.338000", "201657.341000", "201657.343000", "201657.346000", "201657.349000", "201757.316000", "201757.319000", "201757.322000", "201757.324000", "201757.327000", "201757.330000", "201757.333000", "201757.335000", "201757.338000", "201757.341000", "201757.344000", "201757.346000", "201757.349000", "201757.352000", "201757.355000", "201757.357000", "201757.360000", "201757.363000", "201757.366000", "201757.369000", "201757.371000", "201757.374000", "201757.377000", "201757.380000", "201817.231000", "201817.234000", "201817.236000", "201817.239000", "201817.242000", "201817.245000", "201817.247000", "201817.250000", "201917.275000", "201917.278000", "201917.281000", "201917.283000", "201917.286000", "201917.289000", "201917.292000", "201917.294000", "201917.297000", "201917.300000", "201917.303000", "201917.306000", "201917.308000", "201917.311000", "201917.314000", "201917.317000", "201917.319000", "201917.322000", "201917.325000", "201917.327000", "201917.330000", "201917.333000", "201917.336000", "201917.339000", "202017.274000", "202017.463000", "202017.466000", "202017.469000", "202017.471000", "202017.474000", "202017.477000", "202017.480000", "202017.483000", "202017.485000", "202017.488000", "202017.491000", "202017.494000", "202017.496000", "202017.499000", "202017.502000", "202017.518000", "202017.521000", "202017.524000", "202017.527000", "202017.530000", "202017.532000", "202017.535000", "202017.538000", "202030.643000", "202030.647000", "202030.649000", "202030.652000", "202030.655000", "202030.658000"],
      "InstanceNumber": [1, 2, 3, 4, 5, 6, 7, 8, 9, 10, 11, 12, 13, 14, 15, 16, 17, 18, 19, 20, 21, 22, 23, 24, 25, 26, 27, 28, 29, 30, 31, 32, 33, 34, 35, 36, 37, 38, 39, 40, 41, 42, 43, 44, 45, 46, 47, 48, 49, 50, 51, 52, 53, 54, 55, 56, 57, 58, 59, 60, 61, 62, 63, 64, 65, 66, 67, 68, 69, 70, 71, 72, 73, 74, 75, 76, 77, 78, 79, 80, 81, 82, 83, 84, 85, 86, 87, 88, 89, 90, 91, 92, 93, 94, 95, 96, 97, 98, 99, 100, 101, 102, 103, 104, 105, 106, 107, 108, 109, 110, 111, 112, 113, 114, 115, 116, 117, 118, 119, 120, 121, 122, 123, 124, 125, 126, 127, 128, 129, 130, 131, 132],
      "LargestImagePixelValue": [1510, 1936, 1545, 1487, 1511, 1463, 1537, 1475, 1512, 1514, 1442, 1752, 1584, 1517, 1486, 1549, 1540, 1479, 1475, 1453, 1571, 1468, 1442, 1605, 1679, 1491, 1512, 1472, 1514, 1507, 1522, 1915, 2150, 1523, 1485, 1498, 1489, 1470, 1537, 1527, 1528, 1511, 1481, 1430, 1457, 1546, 1316, 1525, 1699, 1547, 1444, 1539, 1499, 1425, 1564, 1531, 1498, 1506, 1535, 1685, 1474, 1451, 1482, 1467, 1503, 1489, 1782, 1469, 1507, 1598, 1537, 1472, 1484, 1500, 1569, 1505, 1568, 1551, 1445, 1467, 1490, 2260, 1649, 1422, 1484, 1477, 1491, 1460, 1422, 1421, 1414, 1425, 1479, 1443, 1382, 1470, 1437, 1446, 1649, 2287, 1617, 1439, 1479, 1407, 1459, 1409, 1473, 1558, 1461, 1514, 1496, 1467, 1491, 1485, 1521, 1473, 1487, 1462, 1595, 1982, 1865, 1465, 1476, 1525, 1460, 1530, 1460, 1498, 1484, 1494, 1787, 1521],
      "WindowCenter": [611.0, 610.0, 607.0, 609.0, 610.0, 610.0, 610.0, 610.0, 610.0, 610.0, 609.0, 611.0, 608.0, 608.0, 609.0, 609.0, 610.0, 608.0, 609.0, 607.0, 610.0, 607.0, 608.0, 608.0, 609.0, 607.0, 607.0, 607.0, 609.0, 609.0, 610.0, 610.0, 609.0, 606.0, 608.0, 606.0, 607.0, 607.0, 608.0, 608.0, 609.0, 608.0, 605.0, 604.0, 607.0, 608.0, 578.0, 609.0, 607.0, 605.0, 604.0, 608.0, 607.0, 607.0, 608.0, 609.0, 608.0, 608.0, 603.0, 607.0, 607.0, 607.0, 608.0, 607.0, 608.0, 605.0, 608.0, 604.0, 607.0, 607.0, 605.0, 605.0, 607.0, 608.0, 606.0, 603.0, 604.0, 606.0, 605.0, 606.0, 608.0, 607.0, 603.0, 605.0, 606.0, 606.0, 606.0, 605.0, 604.0, 606.0, 607.0, 607.0, 606.0, 608.0, 606.0, 602.0, 607.0, 607.0, 608.0, 609.0, 602.0, 599.0, 608.0, 605.0, 608.0, 606.0, 607.0, 607.0, 606.0, 607.0, 608.0, 606.0, 605.0, 606.0, 608.0, 609.0, 608.0, 608.0, 608.0, 609.0, 606.0, 605.0, 606.0, 606.0, 605.0, 606.0, 606.0, 606.0, 607.0, 608.0, 609.0, 606.0],
      "WindowWidth": [1287.0, 1285.0, 1278.0, 1282.0, 1284.0, 1286.0, 1284.0, 1285.0, 1285.0, 1284.0, 1283.0, 1287.0, 1281.0, 1281.0, 1284.0, 1284.0, 1284.0, 1281.0, 1283.0, 1280.0, 1284.0, 1280.0, 1280.0, 1280.0, 1282.0, 1279.0, 1279.0, 1278.0, 1283.0, 1283.0, 1285.0, 1284.0, 1283.0, 1277.0, 1281.0, 1277.0, 1278.0, 1279.0, 1280.0, 1282.0, 1283.0, 1281.0, 1274.0, 1272.0, 1279.0, 1281.0, 1214.0, 1285.0, 1278.0, 1273.0, 1273.0, 1280.0, 1279.0, 1279.0, 1280.0, 1282.0, 1281.0, 1281.0, 1270.0, 1278.0, 1278.0, 1279.0, 1279.0, 1280.0, 1281.0, 1274.0, 1279.0, 1272.0, 1279.0, 1278.0, 1273.0, 1274.0, 1279.0, 1280.0, 1276.0, 1269.0, 1272.0, 1275.0, 1273.0, 1277.0, 1280.0, 1277.0, 1270.0, 1274.0, 1276.0, 1277.0, 1276.0, 1273.0, 1273.0, 1275.0, 1278.0, 1279.0, 1276.0, 1280.0, 1277.0, 1267.0, 1278.0, 1279.0, 1280.0, 1281.0, 1268.0, 1261.0, 1281.0, 1275.0, 1280.0, 1278.0, 1280.0, 1278.0, 1277.0, 1279.0, 1281.0, 1277.0, 1274.0, 1277.0, 1280.0, 1282.0, 1282.0, 1281.0, 1282.0, 1282.0, 1276.0, 1274.0, 1276.0, 1276.0, 1275.0, 1276.0, 1277.0, 1276.0, 1278.0, 1280.0, 1281.0, 1275.0]
    },
    "slices": {}
  }
}