{
  "AcquisitionMatrixPE": 72,
  "AcquisitionNumber": 1,
  "AcquisitionTime": "20:09:33.092500",
  "BandwidthPerPixelPhaseEncode": 24.366,
  "BaseResolution": 72,
  "BodyPartExamined": "BRAIN",
  "CoilCombinationMethod": "Sum of Squares",
  "ConsistencyInfo": "N4_VE11C_LATEST_20160120",
  "ConversionSoftware": "dcm2niix",
  "ConversionSoftwareVersion": "v1.0.20220720",
  "DerivedVendorReportedEchoSpacing": 0.000570011,
  "DeviceSerialNumber": "45219",
  "DwellTime": 3.5e-06,
  "EchoTime": 0.03,
  "EchoTrainLength": 72,
  "EffectiveEchoSpacing": 0.000570011,
  "FlipAngle": 80,
  "HeudiconvVersion": "1.1.6",
  "ImageOrientationPatientDICOM": [0.998421, -0.0484236, 0.0284637, 0.0505779, 0.995462, -0.0805996],
  "ImageOrientationText": "Tra>Cor(-4.7)>Sag(1.4)",
  "ImageType": [
    "ORIGINAL",
    "PRIMARY",
    "M",
    "ND",
    "NORM",
    "MOSAIC"
],
  "ImagingFrequency": 123.182,
  "InPlanePhaseEncodingDirectionDICOM": "COL",
  "InstitutionAddress": "First Avenue 660,New York,NYC,US,10016",
  "InstitutionName": "NYU LANGONE CBI",
  "InstitutionalDepartmentName": "Department",
  "MRAcquisitionType": "2D",
  "MagneticFieldStrength": 3,
  "Manufacturer": "Siemens",
  "ManufacturersModelName": "Skyra",
  "MatrixCoilMode": "SENSE",
  "Modality": "MR",
  "NonlinearGradientCorrection": false,
  "PartialFourier": 1,
  "PatientPosition": "HFS",
  "PercentPhaseFOV": 100,
  "PercentSampling": 100,
  "PhaseEncodingDirection": "j-",
  "PhaseEncodingSteps": 72,
  "PhaseResolution": 1,
  "PixelBandwidth": 1985,
  "ProcedureStepDescription": "MRI BRAIN WITHOUT IV CONTRAST",
  "ProtocolName": "TASK_AB",
  "PulseSequenceDetails": "%SiemensSeq%\\ep2d_bold",
  "ReceiveCoilActiveElements": "HE1-4",
  "ReceiveCoilName": "HeadNeck_20",
  "ReconMatrixPE": 72,
  "RepetitionTime": 2.5,
  "SAR": 0.103157,
  "ScanOptions": "FS",
  "ScanningSequence": "EP",
  "SequenceName": "*epfid2d1_72",
  "SequenceVariant": "SK",
  "SeriesDescription": "TASK_AB",
  "SeriesNumber": 12,
  "ShimSetting": [-927, -6820, 4951, 309, -113, -109, 207, -270],
  "SliceThickness": 3,
  "SliceTiming": [1.24, 0, 1.305, 0.065, 1.37, 0.13, 1.435, 0.195, 1.5, 0.26, 1.565, 0.325, 1.6325, 0.3925, 1.6975, 0.4575, 1.7625, 0.5225, 1.8275, 0.5875, 1.8925, 0.6525, 1.9575, 0.7175, 2.0225, 0.7825, 2.0875, 0.8475, 2.1525, 0.9125, 2.2175, 0.98, 2.285, 1.045, 2.35, 1.11, 2.415, 1.175],
  "SoftwareVersions": "syngo MR E11",
  "SpacingBetweenSlices": 3,
  "StationName": "MRC45219",
  "TaskName": "ab",
  "TotalReadoutTime": 0.0404708,
  "TxRefAmp": 466.473,
  "dcmmeta_affine": [
    [-2.9952638149261475, 0.15173359215259552, 0.0732947438955307, 102.72929382324219],
    [0.14527073502540588, 2.9863874912261963, -0.24573592841625214, -117.35093688964844],
    [0.08539097011089325, 0.2417987734079361, 2.9890201091766357, -83.57135009765625],
    [0.0, 0.0, 0.0, 1.0]
],
  "dcmmeta_reorient_transform": [
    [0.0, -1.0, 0.0, 71.0],
    [1.0, 0.0, 0.0, 0.0],
    [0.0, 0.0, 1.0, 0.0],
    [0.0, 0.0, 0.0, 1.0]
],
  "dcmmeta_shape": [72, 72, 38, 132],
  "dcmmeta_slice_dim": 2,
  "dcmmeta_version": 0.6,
  "global": {
    "const": {
      "AccessionNumber": "103-1",
      "AcquisitionMatrix": [72, 0, 0, 72],
      "AngioFlag": "N",
      "BitsAllocated": 16,
      "BitsStored": 12,
      "BodyPartExamined": "BRAIN",
      "Columns": 504,
      "CountryOfResidence": "United States of America [1]",
      "EchoNumbers": 1,
      "EchoTime": 30.0,
      "EchoTrainLength": 72,
      "FlipAngle": 80.0,
      "HighBit": 11,
      "ImageOrientationPatient": [0.99842124249101, -0.04842357675, 0.02846365678288, 0.05057786402937, 0.99546249813662, -0.0805995935091],
      "ImagePositionPatient": [-793.2537999295, -708.36379883586, -32.619548851578],
      "ImageType": [
        "ORIGINAL",
        "PRIMARY",
        "M",
        "ND",
        "NORM",
        "MOSAIC"
],
      "ImagedNucleus": "1H",
      "ImagingFrequency": 123.182036,
      "InPlanePhaseEncodingDirection": "COL",
      "MRAcquisitionType": "2D",
      "MagneticFieldStrength": 3.0,
      "Manufacturer": "SIEMENS",
      "ManufacturerModelName": "Skyra",
      "Modality": "MR",
      "NumberOfAverages": 1.0,
      "NumberOfPhaseEncodingSteps": 72,
      "PercentPhaseFieldOfView": 100.0,
      "PercentSampling": 100.0,
      "PerformedProcedureStepStartTime": "194242.313000",
      "PhotometricInterpretation": "MONOCHROME2",
      "PixelBandwidth": 1985.0,
      "PixelRepresentation": 0,
      "PixelSpacing": [3.0, 3.0],
      "PregnancyStatus": 4,
      "ProcedureCodeSequence": [
        {
          "CodeMeaning": "MRI BRAIN WITHOUT IV CONTRAST",
          "CodeValue": "IMG269",
          "CodingSchemeDesignator": "L"
        }
],
      "ProtocolName": "TASK_AB",
      "RepetitionTime": 2500.0,
      "RequestAttributesSequence": [
        {
          "RequestedProcedureID": "353073276",
          "ScheduledProcedureStepDescription": "MRI BRAIN WITHOUT IV CONTRAST",
          "ScheduledProcedureStepID": "E10488271",
          "ScheduledProtocolCodeSequence": [
            {
              "CodeMeaning": "MRI BRAIN WITHOUT IV CONTRAST",
              "CodeValue": "651061",
              "CodingSchemeDesignator": "L"
            }
]
        }
],
      "RequestedProcedureCodeSequence": [
        {
          "CodeMeaning": "MRI BRAIN WITHOUT IV CONTRAST",
          "CodeValue": "IMG269",
          "CodingSchemeDesignator": "L"
        }
],
      "Rows": 504,
      "SAR": 0.10315676882225,
      "SamplesPerPixel": 1,
      "ScanOptions": "FS",
      "ScanningSequence": "EP",
      "SequenceName": "*epfid2d1_72",
      "SequenceVariant": "SK",
      "SeriesDescription": "TASK_AB",
      "SeriesNumber": 12,
      "SeriesTime": "200947.928000",
      "SliceLocation": -71.143197328584,
      "SliceThickness": 3.0,
      "SmallestImagePixelValue": 0,
      "SmokingStatus": "UNKNOWN",
      "SoftwareVersions": "syngo MR E11",
      "SpacingBetweenSlices": 2.9999999722041,
      "SpecificCharacterSet": "ISO_IR 100",
      "StudyID": "103-1",
      "StudyTime": "194242.142000",
      "TransmitCoilName": "Body",
      "VariableFlipAngleFlag": "N",
      "WindowCenterWidthExplanation": "Algo1",
      "dBdt": 0.0},
    "slices": {}
  },
  "time": {
    "samples": {
      "AcquisitionNumber": [1, 2, 3, 4, 5, 6, 7, 8, 9, 10, 11, 12, 13, 14, 15, 16, 17, 18, 19, 20, 21, 22, 23, 24, 25, 26, 27, 28, 29, 30, 31, 32, 33, 34, 35, 36, 37, 38, 39, 40, 41, 42, 43, 44, 45, 46, 47, 48, 49, 50, 51, 52, 53, 54, 55, 56, 57, 58, 59, 60, 61, 62, 63, 64, 65, 66, 67, 68, 69, 70, 71, 72, 73, 74, 75, 76, 77, 78, 79, 80, 81, 82, 83, 84, 85, 86, 87, 88, 89, 90, 91, 92, 93, 94, 95, 96, 97, 98, 99, 100, 101, 102, 103, 104, 105, 106, 107, 108, 109, 110, 111, 112, 113, 114, 115, 116, 117, 118, 119, 120, 121, 122, 123, 124, 125, 126, 127, 128, 129, 130, 131, 132],
      "AcquisitionTime": ["200933.092500", "200935.592500", "200938.092500", "200940.592500", "200943.092500", "200945.592500", "200948.092500", "200950.592500", "200953.092500", "200955.592500", "200958.092500", "201000.592500", "201003.092500", "201005.592500", "201008.092500", "201010.592500", "201013.092500", "201015.592500", "201018.092500", "201020.592500", "201023.092500", "201025.592500", "201028.092500", "201030.592500", "201033.092500", "201035.592500", "201038.092500", "201040.592500", "201043.092500", "201045.592500", "201048.092500", "201050.592500", "201053.092500", "201055.592500", "201058.092500", "201100.592500", "201103.092500", "201105.592500", "201108.092500", "201110.592500", "201113.092500", "201115.592500", "201118.092500", "201120.592500", "201123.092500", "201125.592500", "201128.092500", "201130.592500", "201133.092500", "201135.592500", "201138.092500", "201140.592500", "201143.092500", "201145.592500", "201148.092500", "201150.592500", "201153.092500", "201155.592500", "201158.092500", "201200.592500", "201203.092500", "201205.592500", "201208.092500", "201210.592500", "201213.092500", "201215.592500", "201218.092500", "201220.592500", "201223.092500", "201225.592500", "201228.092500", "201230.592500", "201233.092500", "201235.592500", "201238.092500", "201240.592500", "201243.092500", "201245.592500", "201248.092500", "201250.592500", "201253.092500", "201255.592500", "201258.092500", "201300.592500", "201303.092500", "201305.592500", "201308.092500", "201310.592500", "201313.092500", "201315.592500", "201318.092500", "201320.592500", "201323.092500", "201325.592500", "201328.092500", "201330.592500", "201333.092500", "201335.592500", "201338.092500", "201340.592500", "201343.092500", "201345.592500", "201348.092500", "201350.592500", "201353.092500", "201355.592500", "201358.092500", "201400.592500", "201403.092500", "201405.592500", "201408.092500", "201410.592500", "201413.092500", "201415.592500", "201418.092500", "201420.592500", "201423.092500", "201425.592500", "201428.092500", "201430.592500", "201433.092500", "201435.592500", "201438.092500", "201440.592500", "201443.092500", "201445.592500", "201448.092500", "201450.592500", "201453.092500", "201455.592500", "201458.092500", "201500.592500"],
      "ContentTime": ["200947.932000", "200947.936000", "200947.938000", "200947.941000", "200947.950000", "200947.952000", "201047.928000", "201047.931000", "201047.934000", "201047.936000", "201047.939000", "201047.942000", "201047.944000", "201047.947000", "201047.950000", "201047.956000", "201047.959000", "201047.962000", "201047.964000", "201047.967000", "201047.970000", "201047.973000", "201047.975000", "201047.978000", "201047.981000", "201047.983000", "201047.986000", "201047.989000", "201047.992000", "201047.994000", "201147.927000", "201147.930000", "201147.932000", "201147.935000", "201147.938000", "201147.941000", "201147.943000", "201147.946000", "201147.949000", "201147.951000", "201147.954000", "201147.957000", "201147.960000", "201147.962000", "201147.965000", "201147.968000", "201147.970000", "201147.973000", "201147.976000", "201147.979000", "201147.981000", "201147.984000", "201147.987000", "201147.989000", "201247.928000", "201247.931000", "201247.933000", "201247.936000", "201247.939000", "201247.941000", "201247.944000", "201247.947000", "201247.949000", "201247.952000", "201247.955000", "201247.957000", "201247.960000", "201247.963000", "201247.965000", "201247.968000", "201247.971000", "201247.974000", "201247.976000", "201247.992000", "201247.995000", "201247.998000", "201248.002000", "201248.004000", "201347.927000", "201347.930000", "201347.933000", "201347.935000", "201347.938000", "201347.941000", "201347.944000", "201347.946000", "201347.949000", "201347.952000", "201347.954000", "201347.957000", "201347.960000", "201347.963000", "201347.965000", "201347.968000", "201347.971000", "201347.973000", "201347.976000", "201347.979000", "201347.982000", "201347.984000", "201347.987000", "201347.990000", "201447.928000", "201447.931000", "201447.934000", "201447.936000", "201447.939000", "201447.942000", "201447.945000", "201447.947000", "201447.950000", "201447.953000", "201447.955000", "201447.958000", "201447.961000", "201447.964000", "201447.967000", "201447.969000", "201447.972000", "201447.975000", "201447.977000", "201447.980000", "201447.983000", "201447.986000", "201447.988000", "201447.991000", "201502.506000", "201502.509000", "201502.511000", "201502.514000", "201502.517000", "201502.520000"],
      "InstanceCreationTime": ["200947.932000", "200947.936000", "200947.938000", "200947.941000", "200947.950000", "200947.952000", "201047.928000", "201047.931000", "201047.934000", "201047.936000", "201047.939000", "201047.942000", "201047.944000", "201047.947000", "201047.950000", "201047.956000", "201047.959000", "201047.962000", "201047.964000", "201047.967000", "201047.970000", "201047.973000", "201047.975000", "201047.978000", "201047.981000", "201047.983000", "201047.986000", "201047.989000", "201047.992000", "201047.994000", "201147.927000", "201147.930000", "201147.932000", "201147.935000", "201147.938000", "201147.941000", "201147.943000", "201147.946000", "201147.949000", "201147.951000", "201147.954000", "201147.957000", "201147.960000", "201147.962000", "201147.965000", "201147.968000", "201147.970000", "201147.973000", "201147.976000", "201147.979000", "201147.981000", "201147.984000", "201147.987000", "201147.989000", "201247.928000", "201247.931000", "201247.933000", "201247.936000", "201247.939000", "201247.941000", "201247.944000", "201247.947000", "201247.949000", "201247.952000", "201247.955000", "201247.957000", "201247.960000", "201247.963000", "201247.965000", "201247.968000", "201247.971000", "201247.974000", "201247.976000", "201247.992000", "201247.995000", "201247.998000", "201248.002000", "201248.004000", "201347.927000", "201347.930000", "201347.933000", "201347.935000", "201347.938000", "201347.941000", "201347.944000", "201347.946000", "201347.949000", "201347.952000", "201347.954000", "201347.957000", "201347.960000", "201347.963000", "201347.965000", "201347.968000", "201347.971000", "201347.973000", "201347.976000", "201347.979000", "201347.982000", "201347.984000", "201347.987000", "201347.990000", "201447.928000", "201447.931000", "201447.934000", "201447.936000", "201447.939000", "201447.942000", "201447.945000", "201447.947000", "201447.950000", "201447.953000", "201447.955000", "201447.958000", "201447.961000", "201447.964000", "201447.967000", "201447.969000", "201447.972000", "201447.975000", "201447.977000", "201447.980000", "201447.983000", "201447.986000", "201447.988000", "201447.991000", "201502.506000", "201502.509000", "201502.511000", "201502.514000", "201502.517000", "201502.520000"],
      "InstanceNumber": [1, 2, 3, 4, 5, 6, 7, 8, 9, 10, 11, 12, 13, 14, 15, 16, 17, 18, 19, 20, 21, 22, 23, 24, 25, 26, 27, 28, 29, 30, 31, 32, 33, 34, 35, 36, 37, 38, 39, 40, 41, 42, 43, 44, 45, 46, 47, 48, 49, 50, 51, 52, 53, 54, 55, 56, 57, 58, 59, 60, 61, 62, 63, 64, 65, 66, 67, 68, 69, 70, 71, 72, 73, 74, 75, 76, 77, 78, 79, 80, 81, 82, 83, 84, 85, 86, 87, 88, 89, 90, 91, 92, 93, 94, 95, 96, 97, 98, 99, 100, 101, 102, 103, 104, 105, 106, 107, 108, 109, 110, 111, 112, 113, 114, 115, 116, 117, 118, 119, 120, 121, 122, 123, 124, 125, 126, 127, 128, 129, 130, 131, 132],
      "LargestImagePixelValue": [1652, 1554, 1564, 1670, 1547, 1598, 1665, 1664, 1630, 1646, 1771, 1554, 1679, 1537, 1552, 1551, 1561, 1704, 1646, 1558, 1682, 1688, 1535, 1623, 1561, 1674, 1542, 1662, 1597, 1613, 1864, 1639, 1645, 1650, 1670, 1633, 1643, 1706, 1544, 1571, 1649, 1557, 1601, 1630, 1597, 1829, 1651, 1716, 1606, 1718, 1559, 1712, 1774, 1550, 1581, 1784, 1551, 1537, 1658, 1737, 1538, 1656, 1634, 1627, 1739, 1655, 1790, 1540, 1559, 1814, 1564, 1557, 1722, 1540, 1767, 1731, 1521, 1536, 1576, 1584, 1570, 1626, 1545, 1714, 1605, 1575, 1559, 1658, 1634, 1559, 1801, 1597, 1658, 1882, 1560, 1757, 1735, 1838, 1542, 1639, 1696, 1547, 1540, 1647, 1785, 1829, 1532, 1775, 1773, 1749, 1620, 1767, 1775, 1758, 1554, 1695, 1906, 1523, 1583, 1662, 1653, 1689, 1558, 1741, 1674, 1541, 1542, 1659, 1541, 1816, 1680, 1538],
      "WindowCenter": [709.0, 705.0, 704.0, 705.0, 704.0, 705.0, 705.0, 706.0, 707.0, 705.0, 705.0, 704.0, 705.0, 704.0, 704.0, 704.0, 704.0, 706.0, 705.0, 703.0, 704.0, 705.0, 704.0, 704.0, 704.0, 705.0, 704.0, 705.0, 705.0, 705.0, 705.0, 703.0, 704.0, 705.0, 705.0, 703.0, 704.0, 705.0, 704.0, 704.0, 704.0, 704.0, 704.0, 704.0, 704.0, 706.0, 704.0, 704.0, 703.0, 704.0, 703.0, 704.0, 705.0, 703.0, 704.0, 705.0, 703.0, 703.0, 704.0, 704.0, 703.0, 704.0, 704.0, 705.0, 705.0, 703.0, 704.0, 703.0, 703.0, 705.0, 703.0, 704.0, 706.0, 704.0, 705.0, 705.0, 704.0, 704.0, 704.0, 704.0, 704.0, 704.0, 704.0, 705.0, 704.0, 704.0, 703.0, 704.0, 705.0, 704.0, 705.0, 703.0, 705.0, 706.0, 704.0, 705.0, 705.0, 705.0, 702.0, 703.0, 704.0, 703.0, 702.0, 703.0, 707.0, 707.0, 703.0, 704.0, 704.0, 705.0, 705.0, 705.0, 704.0, 704.0, 703.0, 705.0, 705.0, 702.0, 704.0, 705.0, 705.0, 704.0, 703.0, 705.0, 706.0, 703.0, 702.0, 703.0, 703.0, 704.0, 703.0, 704.0],
      "WindowWidth": [1504.0, 1495.0, 1493.0, 1495.0, 1493.0, 1496.0, 1496.0, 1498.0, 1499.0, 1495.0, 1496.0, 1494.0, 1496.0, 1493.0, 1494.0, 1493.0, 1492.0, 1496.0, 1495.0, 1491.0, 1493.0, 1495.0, 1492.0, 1492.0, 1492.0, 1495.0, 1492.0, 1494.0, 1494.0, 1495.0, 1496.0, 1491.0, 1492.0, 1494.0, 1494.0, 1491.0, 1492.0, 1496.0, 1494.0, 1492.0, 1493.0, 1493.0, 1492.0, 1493.0, 1493.0, 1497.0, 1493.0, 1493.0, 1491.0, 1492.0, 1490.0, 1493.0, 1494.0, 1491.0, 1492.0, 1494.0, 1490.0, 1491.0, 1491.0, 1493.0, 1491.0, 1492.0, 1492.0, 1494.0, 1494.0, 1490.0, 1491.0, 1489.0, 1490.0, 1495.0, 1491.0, 1492.0, 1496.0, 1491.0, 1494.0, 1495.0, 1493.0, 1493.0, 1492.0, 1493.0, 1491.0, 1493.0, 1493.0, 1495.0, 1493.0, 1493.0, 1491.0, 1492.0, 1494.0, 1492.0, 1494.0, 1491.0, 1493.0, 1497.0, 1492.0, 1495.0, 1493.0, 1493.0, 1487.0, 1490.0, 1493.0, 1490.0, 1488.0, 1490.0, 1498.0, 1498.0, 1490.0, 1491.0, 1492.0, 1494.0, 1494.0, 1493.0, 1493.0, 1492.0, 1491.0, 1494.0, 1494.0, 1488.0, 1491.0, 1494.0, 1493.0, 1493.0, 1490.0, 1495.0, 1495.0, 1491.0, 1488.0, 1491.0, 1489.0, 1492.0, 1490.0, 1491.0]
    },
    "slices": {}
  }
}