{
  "AcquisitionMatrixPE": 72,
  "AcquisitionNumber": 1,
  "AcquisitionTime": "16:04:56.712500",
  "BandwidthPerPixelPhaseEncode": 24.366,
  "BaseResolution": 72,
  "BodyPartExamined": "HEAD",
  "CoilCombinationMethod": "Sum of Squares",
  "ConsistencyInfo": "N4_VE11C_LATEST_20160120",
  "ConversionSoftware": "dcm2niix",
  "ConversionSoftwareVersion": "v1.0.20220720",
  "DerivedVendorReportedEchoSpacing": 0.000570011,
  "DeviceSerialNumber": "45219",
  "DwellTime": 3.5e-06,
  "EchoTime": 0.03,
  "EchoTrainLength": 72,
  "EffectiveEchoSpacing": 0.000570011,
  "FlipAngle": 80,
  "HeudiconvVersion": "1.1.6",
  "ImageComments": "Reference volume for motion correction.",
  "ImageOrientationPatientDICOM": [0.995465, -0.0258025, -0.0915608, 0.0139002, 0.991635, -0.128325],
  "ImageOrientationText": "Tra>Cor(-7.3)>Sag(-5.4)",
  "ImageType": [
    "ORIGINAL",
    "PRIMARY",
    "M",
    "ND",
    "NORM",
    "MOCO",
    "MOSAIC"
],
  "ImagingFrequency": 123.182,
  "InPlanePhaseEncodingDirectionDICOM": "COL",
  "InstitutionAddress": "First Avenue 660,New York,NYC,US,10016",
  "InstitutionName": "NYU LANGONE CBI",
  "InstitutionalDepartmentName": "Department",
  "MRAcquisitionType": "2D",
  "MagneticFieldStrength": 3,
  "Manufacturer": "Siemens",
  "ManufacturersModelName": "Skyra",
  "MatrixCoilMode": "SENSE",
  "Modality": "MR",
  "NonlinearGradientCorrection": false,
  "PartialFourier": 1,
  "PatientPosition": "HFS",
  "PercentPhaseFOV": 100,
  "PercentSampling": 100,
  "PhaseEncodingDirection": "j-",
  "PhaseEncodingSteps": 72,
  "PhaseResolution": 1,
  "PixelBandwidth": 1985,
  "ProcedureStepDescription": "MRI BRAIN WITHOUT IV CONTRAST",
  "ProtocolName": "TASK_AB_MoCo",
  "PulseSequenceDetails": "%SiemensSeq%\\ep2d_bold",
  "ReceiveCoilActiveElements": "HE1-4",
  "ReceiveCoilName": "HeadNeck_20",
  "ReconMatrixPE": 72,
  "RepetitionTime": 2.5,
  "SAR": 0.103884,
  "ScanOptions": "FS",
  "ScanningSequence": "EP",
  "SequenceName": "*epfid2d1_72",
  "SequenceVariant": "SK",
  "SeriesDescription": "MoCoSeries",
  "SeriesNumber": 12,
  "ShimSetting": [-922, -6978, 4997, 264, -205, -397, 476, -107],
  "SliceThickness": 3,
  "SliceTiming": [1.24, 0, 1.305, 0.065, 1.37, 0.13, 1.435, 0.195, 1.5, 0.26, 1.5675, 0.3275, 1.6325, 0.3925, 1.6975, 0.4575, 1.7625, 0.5225, 1.8275, 0.5875, 1.8925, 0.6525, 1.9575, 0.7175, 2.0225, 0.7825, 2.0875, 0.8475, 2.1525, 0.9125, 2.22, 0.98, 2.285, 1.045, 2.35, 1.11, 2.415, 1.175],
  "SoftwareVersions": "syngo MR E11",
  "SpacingBetweenSlices": 3,
  "StationName": "MRC45219",
  "TaskName": "ab",
  "TotalReadoutTime": 0.0404708,
  "TxRefAmp": 424.19,
  "dcmmeta_affine": [
    [-2.9863953590393066, 0.04170067235827446, -0.2823180556297302, 109.15480041503906],
    [0.07740763574838638, 2.9749042987823486, -0.3794099688529968, -108.03404998779297],
    [-0.27468252182006836, 0.3849739134311676, 2.962489604949951, -56.38153839111328],
    [0.0, 0.0, 0.0, 1.0]
],
  "dcmmeta_reorient_transform": [
    [0.0, -1.0, 0.0, 71.0],
    [1.0, 0.0, 0.0, 0.0],
    [0.0, 0.0, 1.0, 0.0],
    [0.0, 0.0, 0.0, 1.0]
],
  "dcmmeta_shape": [72, 72, 38, 132],
  "dcmmeta_slice_dim": 2,
  "dcmmeta_version": 0.6,
  "global": {
    "const": {
      "AcquisitionMatrix": [72, 0, 0, 72],
      "AngioFlag": "N",
      "BitsAllocated": 16,
      "BitsStored": 12,
      "BodyPartExamined": "HEAD",
      "Columns": 504,
      "CountryOfResidence": "United States of America [1]",
      "EchoNumbers": 1,
      "EchoTime": 30.0,
      "EchoTrainLength": 72,
      "FlipAngle": 80.0,
      "HighBit": 11,
      "ImageOrientationPatient": [0.99546513790842, -0.0258025443384, -0.0915608426929, 0.01390022444533, 0.99163479723341, -0.1283246378379],
      "ImagePositionPatient": [-766.18430010009, -729.04346280688, 113.43739895879],
      "ImageType": [
        "ORIGINAL",
        "PRIMARY",
        "M",
        "ND",
        "NORM",
        "MOCO",
        "MOSAIC"
],
      "ImagedNucleus": "1H",
      "ImagingFrequency": 123.182103,
      "InPlanePhaseEncodingDirection": "COL",
      "MRAcquisitionType": "2D",
      "MagneticFieldStrength": 3.0,
      "Manufacturer": "SIEMENS",
      "ManufacturerModelName": "Skyra",
      "Modality": "MR",
      "NumberOfAverages": 1.0,
      "NumberOfPhaseEncodingSteps": 72,
      "PercentPhaseFieldOfView": 100.0,
      "PercentSampling": 100.0,
      "PerformedProcedureStepStartTime": "154558.726000",
      "PhotometricInterpretation": "MONOCHROME2",
      "PixelBandwidth": 1985.0,
      "PixelRepresentation": 0,
      "PixelSpacing": [3.0, 3.0],
      "PregnancyStatus": 4,
      "ProcedureCodeSequence": [
        {
          "CodeMeaning": "MRI BRAIN WITHOUT IV CONTRAST",
          "CodeValue": "IMG269",
          "CodingSchemeDesignator": "L"
        }
],
      "ProtocolName": "TASK_AB",
      "RepetitionTime": 2500.0,
      "RequestAttributesSequence": [
        {
          "RequestedProcedureID": "125739966",
          "ScheduledProcedureStepDescription": "MRI BRAIN WITHOUT IV CONTRAST",
          "ScheduledProcedureStepID": "E9111054",
          "ScheduledProtocolCodeSequence": [
            {
              "CodeMeaning": "MRI BRAIN WITHOUT IV CONTRAST",
              "CodeValue": "651061",
              "CodingSchemeDesignator": "L"
            }
]
        }
],
      "RequestedProcedureCodeSequence": [
        {
          "CodeMeaning": "MRI BRAIN WITHOUT IV CONTRAST",
          "CodeValue": "IMG269",
          "CodingSchemeDesignator": "L"
        }
],
      "Rows": 504,
      "SAR": 0.10388437932687,
      "SamplesPerPixel": 1,
      "ScanOptions": "FS",
      "ScanningSequence": "EP",
      "SequenceName": "*epfid2d1_72",
      "SequenceVariant": "SK",
      "SeriesDescription": "MoCoSeries",
      "SeriesNumber": 12,
      "SeriesTime": "160555.183000",
      "SliceLocation": -52.285634238757,
      "SliceThickness": 3.0,
      "SmallestImagePixelValue": 0,
      "SmokingStatus": "UNKNOWN",
      "SoftwareVersions": "syngo MR E11",
      "SpacingBetweenSlices": 2.9999999723599,
      "SpecificCharacterSet": "ISO_IR 100",
      "StudyTime": "154558.568000",
      "TransmitCoilName": "Body",
      "VariableFlipAngleFlag": "N",
      "WindowCenterWidthExplanation": "Algo1",
      "dBdt": 0.0},
    "slices": {}
  },
  "time": {
    "samples": {
      "AcquisitionNumber": [1, 2, 3, 4, 5, 6, 7, 8, 9, 10, 11, 12, 13, 14, 15, 16, 17, 18, 19, 20, 21, 22, 23, 24, 25, 26, 27, 28, 29, 30, 31, 32, 33, 34, 35, 36, 37, 38, 39, 40, 41, 42, 43, 44, 45, 46, 47, 48, 49, 50, 51, 52, 53, 54, 55, 56, 57, 58, 59, 60, 61, 62, 63, 64, 65, 66, 67, 68, 69, 70, 71, 72, 73, 74, 75, 76, 77, 78, 79, 80, 81, 82, 83, 84, 85, 86, 87, 88, 89, 90, 91, 92, 93, 94, 95, 96, 97, 98, 99, 100, 101, 102, 103, 104, 105, 106, 107, 108, 109, 110, 111, 112, 113, 114, 115, 116, 117, 118, 119, 120, 121, 122, 123, 124, 125, 126, 127, 128, 129, 130, 131, 132],
      "AcquisitionTime": ["160456.712500", "160459.212500", "160501.712500", "160504.212500", "160506.712500", "160509.212500", "160511.712500", "160514.212500", "160516.712500", "160519.212500", "160521.712500", "160524.212500", "160526.712500", "160529.212500", "160531.712500", "160534.212500", "160536.712500", "160539.212500", "160541.712500", "160544.212500", "160546.712500", "160549.212500", "160551.712500", "160554.212500", "160556.712500", "160559.212500", "160601.712500", "160604.212500", "160606.712500", "160609.212500", "160611.712500", "160614.212500", "160616.712500", "160619.212500", "160621.712500", "160624.212500", "160626.712500", "160629.212500", "160631.712500", "160634.212500", "160636.712500", "160639.212500", "160641.712500", "160644.212500", "160646.712500", "160649.212500", "160651.712500", "160654.212500", "160656.712500", "160659.212500", "160701.712500", "160704.212500", "160706.712500", "160709.212500", "160711.712500", "160714.212500", "160716.712500", "160719.212500", "160721.712500", "160724.212500", "160726.712500", "160729.212500", "160731.712500", "160734.212500", "160736.712500", "160739.212500", "160741.712500", "160744.212500", "160746.712500", "160749.212500", "160751.712500", "160754.212500", "160756.712500", "160759.212500", "160801.712500", "160804.212500", "160806.712500", "160809.212500", "160811.712500", "160814.212500", "160816.712500", "160819.212500", "160821.712500", "160824.212500", "160826.712500", "160829.212500", "160831.712500", "160834.212500", "160836.712500", "160839.212500", "160841.712500", "160844.212500", "160846.712500", "160849.212500", "160851.712500", "160854.212500", "160856.712500", "160859.212500", "160901.712500", "160904.212500", "160906.712500", "160909.212500", "160911.712500", "160914.212500", "160916.712500", "160919.212500", "160921.712500", "160924.212500", "160926.712500", "160929.212500", "160931.712500", "160934.212500", "160936.712500", "160939.212500", "160941.712500", "160944.212500", "160946.712500", "160949.212500", "160951.712500", "160954.212500", "160956.712500", "160959.212500", "161001.712500", "161004.212500", "161006.712500", "161009.212500", "161011.712500", "161014.212500", "161016.712500", "161019.212500", "161021.712500", "161024.212500"],
      "ContentTime": ["160555.186000", "160555.189000", "160555.191000", "160555.194000", "160555.197000", "160555.200000", "160555.203000", "160555.205000", "160555.208000", "160555.211000", "160555.214000", "160555.216000", "160555.219000", "160555.222000", "160555.225000", "160555.228000", "160555.230000", "160555.233000", "160555.236000", "160555.239000", "160555.242000", "160555.244000", "160555.247000", "160655.183000", "160655.186000", "160655.189000", "160655.192000", "160655.195000", "160655.197000", "160655.200000", "160655.203000", "160655.206000", "160655.208000", "160655.211000", "160655.214000", "160655.217000", "160655.219000", "160655.222000", "160655.225000", "160655.228000", "160655.237000", "160655.240000", "160655.243000", "160655.246000", "160655.249000", "160655.251000", "160655.254000", "160755.184000", "160755.187000", "160755.189000", "160755.192000", "160755.195000", "160755.198000", "160755.201000", "160755.203000", "160755.206000", "160755.209000", "160755.212000", "160755.215000", "160755.218000", "160755.220000", "160755.223000", "160755.226000", "160755.229000", "160755.232000", "160755.234000", "160755.237000", "160755.240000", "160755.243000", "160755.245000", "160755.248000", "160855.174000", "160855.177000", "160855.180000", "160855.183000", "160855.186000", "160855.189000", "160855.192000", "160855.195000", "160855.198000", "160855.200000", "160855.203000", "160855.206000", "160855.209000", "160855.212000", "160855.214000", "160855.217000", "160855.220000", "160855.223000", "160855.226000", "160855.228000", "160855.231000", "160855.234000", "160855.237000", "160855.239000", "160955.168000", "160955.171000", "160955.174000", "160955.177000", "160955.180000", "160955.182000", "160955.185000", "160955.188000", "160955.191000", "160955.194000", "160955.196000", "160955.199000", "160955.202000", "160955.205000", "160955.207000", "160955.210000", "160955.213000", "160955.216000", "160955.219000", "160955.221000", "160955.224000", "160955.227000", "160955.230000", "160955.233000", "161026.483000", "161026.487000", "161026.490000", "161026.494000", "161026.498000", "161026.501000", "161026.504000", "161026.507000", "161026.509000", "161026.512000", "161026.515000", "161026.518000", "161026.521000"],
      "InstanceCreationTime": ["160555.186000", "160555.189000", "160555.191000", "160555.194000", "160555.197000", "160555.200000", "160555.203000", "160555.205000", "160555.208000", "160555.211000", "160555.214000", "160555.216000", "160555.219000", "160555.222000", "160555.225000", "160555.228000", "160555.230000", "160555.233000", "160555.236000", "160555.239000", "160555.242000", "160555.244000", "160555.247000", "160655.183000", "160655.186000", "160655.189000", "160655.192000", "160655.195000", "160655.197000", "160655.200000", "160655.203000", "160655.206000", "160655.208000", "160655.211000", "160655.214000", "160655.217000", "160655.219000", "160655.222000", "160655.225000", "160655.228000", "160655.237000", "160655.240000", "160655.243000", "160655.246000", "160655.249000", "160655.251000", "160655.254000", "160755.184000", "160755.187000", "160755.189000", "160755.192000", "160755.195000", "160755.198000", "160755.201000", "160755.203000", "160755.206000", "160755.209000", "160755.212000", "160755.215000", "160755.218000", "160755.220000", "160755.223000", "160755.226000", "160755.229000", "160755.232000", "160755.234000", "160755.237000", "160755.240000", "160755.243000", "160755.245000", "160755.248000", "160855.174000", "160855.177000", "160855.180000", "160855.183000", "160855.186000", "160855.189000", "160855.192000", "160855.195000", "160855.198000", "160855.200000", "160855.203000", "160855.206000", "160855.209000", "160855.212000", "160855.214000", "160855.217000", "160855.220000", "160855.223000", "160855.226000", "160855.228000", "160855.231000", "160855.234000", "160855.237000", "160855.239000", "160955.168000", "160955.171000", "160955.174000", "160955.177000", "160955.180000", "160955.182000", "160955.185000", "160955.188000", "160955.191000", "160955.194000", "160955.196000", "160955.199000", "160955.202000", "160955.205000", "160955.207000", "160955.210000", "160955.213000", "160955.216000", "160955.219000", "160955.221000", "160955.224000", "160955.227000", "160955.230000", "160955.233000", "161026.483000", "161026.487000", "161026.490000", "161026.494000", "161026.498000", "161026.501000", "161026.504000", "161026.507000", "161026.509000", "161026.512000", "161026.515000", "161026.518000", "161026.521000"],
      "InstanceNumber": [1, 2, 3, 4, 5, 6, 7, 8, 9, 10, 11, 12, 13, 14, 15, 16, 17, 18, 19, 20, 21, 22, 23, 24, 25, 26, 27, 28, 29, 30, 31, 32, 33, 34, 35, 36, 37, 38, 39, 40, 41, 42, 43, 44, 45, 46, 47, 48, 49, 50, 51, 52, 53, 54, 55, 56, 57, 58, 59, 60, 61, 62, 63, 64, 65, 66, 67, 68, 69, 70, 71, 72, 73, 74, 75, 76, 77, 78, 79, 80, 81, 82, 83, 84, 85, 86, 87, 88, 89, 90, 91, 92, 93, 94, 95, 96, 97, 98, 99, 100, 101, 102, 103, 104, 105, 106, 107, 108, 109, 110, 111, 112, 113, 114, 115, 116, 117, 118, 119, 120, 121, 122, 123, 124, 125, 126, 127, 128, 129, 130, 131, 132],
      "LargestImagePixelValue": [2108, 1700, 1607, 2172, 2079, 2109, 1625, 1765, 1728, 1574, 1947, 1729, 2243, 2187, 2108, 1646, 2051, 1930, 1922, 1908, 1833, 1687, 2135, 2016, 2085, 1968, 1682, 2218, 1719, 1943, 1973, 2240, 2237, 2098, 1849, 2112, 2267, 2038, 1828, 1775, 1968, 2020, 2017, 2313, 1971, 1949, 1979, 2402, 1712, 1995, 1806, 2179, 2305, 1639, 1640, 1841, 2630, 2312, 2004, 2159, 2149, 2274, 2234, 1987, 1985, 1593, 2422, 2093, 1850, 2639, 2028, 1877, 2661, 1908, 2048, 2805, 2202, 2318, 2238, 2648, 2147, 1563, 2766, 2281, 2397, 2515, 2001, 2047, 2903, 2139, 2343, 2501, 2611, 2113, 1952, 2205, 2895, 2574, 2307, 2494, 2332, 1836, 2470, 2502, 1657, 2013, 2735, 2714, 2546, 2724, 2044, 2108, 2335, 2218, 2132, 1585, 2345, 2274, 1901, 2681, 2333, 2093, 2249, 2387, 2767, 2304, 2103, 2413, 2784, 2187, 2109, 1634],
      "WindowCenter": [664.0, 662.0, 662.0, 664.0, 663.0, 662.0, 661.0, 662.0, 662.0, 663.0, 665.0, 664.0, 664.0, 662.0, 661.0, 660.0, 663.0, 663.0, 664.0, 664.0, 664.0, 663.0, 664.0, 662.0, 662.0, 662.0, 661.0, 663.0, 662.0, 663.0, 663.0, 665.0, 665.0, 663.0, 662.0, 663.0, 664.0, 663.0, 663.0, 662.0, 664.0, 664.0, 664.0, 665.0, 663.0, 663.0, 662.0, 663.0, 660.0, 662.0, 662.0, 662.0, 662.0, 661.0, 662.0, 664.0, 666.0, 665.0, 665.0, 666.0, 665.0, 665.0, 663.0, 661.0, 661.0, 660.0, 665.0, 664.0, 663.0, 667.0, 665.0, 664.0, 665.0, 664.0, 664.0, 665.0, 663.0, 663.0, 663.0, 664.0, 662.0, 661.0, 667.0, 665.0, 662.0, 664.0, 662.0, 663.0, 665.0, 664.0, 665.0, 665.0, 664.0, 664.0, 664.0, 663.0, 665.0, 663.0, 663.0, 664.0, 659.0, 639.0, 670.0, 666.0, 663.0, 665.0, 666.0, 664.0, 662.0, 663.0, 659.0, 662.0, 664.0, 664.0, 664.0, 662.0, 666.0, 666.0, 664.0, 666.0, 665.0, 663.0, 665.0, 666.0, 664.0, 665.0, 665.0, 664.0, 666.0, 662.0, 662.0, 655.0],
      "WindowWidth": [1407.0, 1403.0, 1404.0, 1408.0, 1404.0, 1403.0, 1400.0, 1404.0, 1403.0, 1405.0, 1410.0, 1406.0, 1407.0, 1401.0, 1399.0, 1398.0, 1405.0, 1406.0, 1406.0, 1407.0, 1408.0, 1405.0, 1407.0, 1402.0, 1401.0, 1402.0, 1400.0, 1404.0, 1402.0, 1405.0, 1405.0, 1408.0, 1409.0, 1405.0, 1402.0, 1404.0, 1406.0, 1404.0, 1404.0, 1404.0, 1406.0, 1407.0, 1407.0, 1408.0, 1405.0, 1405.0, 1403.0, 1404.0, 1397.0, 1402.0, 1402.0, 1402.0, 1403.0, 1400.0, 1403.0, 1407.0, 1412.0, 1409.0, 1409.0, 1411.0, 1409.0, 1408.0, 1405.0, 1400.0, 1401.0, 1399.0, 1410.0, 1406.0, 1405.0, 1412.0, 1410.0, 1406.0, 1410.0, 1407.0, 1407.0, 1409.0, 1404.0, 1405.0, 1405.0, 1405.0, 1401.0, 1400.0, 1413.0, 1408.0, 1402.0, 1407.0, 1403.0, 1403.0, 1408.0, 1406.0, 1408.0, 1408.0, 1406.0, 1405.0, 1407.0, 1404.0, 1408.0, 1403.0, 1404.0, 1405.0, 1392.0, 1348.0, 1422.0, 1411.0, 1405.0, 1410.0, 1411.0, 1406.0, 1402.0, 1404.0, 1396.0, 1401.0, 1408.0, 1407.0, 1407.0, 1402.0, 1410.0, 1410.0, 1406.0, 1411.0, 1409.0, 1405.0, 1409.0, 1410.0, 1405.0, 1408.0, 1409.0, 1406.0, 1412.0, 1402.0, 1402.0, 1386.0]
    },
    "slices": {}
  }
}