{
  "AcquisitionMatrixPE": 72,
  "AcquisitionNumber": 1,
  "AcquisitionTime": "15:56:29.092500",
  "BandwidthPerPixelPhaseEncode": 24.366,
  "BaseResolution": 72,
  "BodyPartExamined": "HEAD",
  "CoilCombinationMethod": "Sum of Squares",
  "ConsistencyInfo": "N4_VE11C_LATEST_20160120",
  "ConversionSoftware": "dcm2niix",
  "ConversionSoftwareVersion": "v1.0.20220720",
  "DerivedVendorReportedEchoSpacing": 0.000570011,
  "DeviceSerialNumber": "45219",
  "DwellTime": 3.5e-06,
  "EchoTime": 0.03,
  "EchoTrainLength": 72,
  "EffectiveEchoSpacing": 0.000570011,
  "FlipAngle": 80,
  "HeudiconvVersion": "1.1.6",
  "ImageComments": "Reference volume for motion correction.",
  "ImageOrientationPatientDICOM": [0.995465, -0.0258025, -0.0915608, 0.0139002, 0.991635, -0.128325],
  "ImageOrientationText": "Tra>Cor(-7.3)>Sag(-5.4)",
  "ImageType": [
    "ORIGINAL",
    "PRIMARY",
    "M",
    "ND",
    "NORM",
    "MOCO",
    "MOSAIC"
],
  "ImagingFrequency": 123.182,
  "InPlanePhaseEncodingDirectionDICOM": "COL",
  "InstitutionAddress": "First Avenue 660,New York,NYC,US,10016",
  "InstitutionName": "NYU LANGONE CBI",
  "InstitutionalDepartmentName": "Department",
  "MRAcquisitionType": "2D",
  "MagneticFieldStrength": 3,
  "Manufacturer": "Siemens",
  "ManufacturersModelName": "Skyra",
  "MatrixCoilMode": "SENSE",
  "Modality": "MR",
  "NonlinearGradientCorrection": false,
  "PartialFourier": 1,
  "PatientPosition": "HFS",
  "PercentPhaseFOV": 100,
  "PercentSampling": 100,
  "PhaseEncodingDirection": "j-",
  "PhaseEncodingSteps": 72,
  "PhaseResolution": 1,
  "PixelBandwidth": 1985,
  "ProcedureStepDescription": "MRI BRAIN WITHOUT IV CONTRAST",
  "ProtocolName": "REST_2_MoCo",
  "PulseSequenceDetails": "%SiemensSeq%\\ep2d_bold",
  "ReceiveCoilActiveElements": "HE1-4",
  "ReceiveCoilName": "HeadNeck_20",
  "ReconMatrixPE": 72,
  "RepetitionTime": 2.5,
  "SAR": 0.103847,
  "ScanOptions": "FS",
  "ScanningSequence": "EP",
  "SequenceName": "*epfid2d1_72",
  "SequenceVariant": "SK",
  "SeriesDescription": "MoCoSeries",
  "SeriesNumber": 8,
  "ShimSetting": [-922, -6978, 4997, 264, -205, -397, 476, -107],
  "SliceThickness": 3,
  "SliceTiming": [1.24, 0, 1.305, 0.0675, 1.3725, 0.1325, 1.4375, 0.1975, 1.5025, 0.2625, 1.5675, 0.3275, 1.6325, 0.3925, 1.6975, 0.4575, 1.7625, 0.5225, 1.8275, 0.5875, 1.8925, 0.6525, 1.96, 0.72, 2.025, 0.785, 2.09, 0.85, 2.155, 0.915, 2.22, 0.98, 2.285, 1.045, 2.35, 1.11, 2.415, 1.175],
  "SoftwareVersions": "syngo MR E11",
  "SpacingBetweenSlices": 3,
  "StationName": "MRC45219",
  "TaskName": "rest",
  "TotalReadoutTime": 0.0404708,
  "TxRefAmp": 424.19,
  "dcmmeta_affine": [
    [-2.9863953590393066, 0.04170067235827446, -0.2823180556297302, 109.15480041503906],
    [0.07740763574838638, 2.9749042987823486, -0.3794099688529968, -108.03404998779297],
    [-0.27468252182006836, 0.3849739134311676, 2.962489604949951, -56.38153839111328],
    [0.0, 0.0, 0.0, 1.0]
],
  "dcmmeta_reorient_transform": [
    [0.0, -1.0, 0.0, 71.0],
    [1.0, 0.0, 0.0, 0.0],
    [0.0, 0.0, 1.0, 0.0],
    [0.0, 0.0, 0.0, 1.0]
],
  "dcmmeta_shape": [72, 72, 38, 122],
  "dcmmeta_slice_dim": 2,
  "dcmmeta_version": 0.6,
  "global": {
    "const": {
      "AcquisitionMatrix": [72, 0, 0, 72],
      "AngioFlag": "N",
      "BitsAllocated": 16,
      "BitsStored": 12,
      "BodyPartExamined": "HEAD",
      "Columns": 504,
      "CountryOfResidence": "United States of America [1]",
      "EchoNumbers": 1,
      "EchoTime": 30.0,
      "EchoTrainLength": 72,
      "FlipAngle": 80.0,
      "HighBit": 11,
      "ImageOrientationPatient": [0.99546513790842, -0.0258025443384, -0.0915608426929, 0.01390022444533, 0.99163479723341, -0.1283246378379],
      "ImagePositionPatient": [-766.18430010009, -729.04346280688, 113.43739895879],
      "ImageType": [
        "ORIGINAL",
        "PRIMARY",
        "M",
        "ND",
        "NORM",
        "MOCO",
        "MOSAIC"
],
      "ImagedNucleus": "1H",
      "ImagingFrequency": 123.182065,
      "InPlanePhaseEncodingDirection": "COL",
      "MRAcquisitionType": "2D",
      "MagneticFieldStrength": 3.0,
      "Manufacturer": "SIEMENS",
      "ManufacturerModelName": "Skyra",
      "Modality": "MR",
      "NumberOfAverages": 1.0,
      "NumberOfPhaseEncodingSteps": 72,
      "PercentPhaseFieldOfView": 100.0,
      "PercentSampling": 100.0,
      "PerformedProcedureStepStartTime": "154558.726000",
      "PhotometricInterpretation": "MONOCHROME2",
      "PixelBandwidth": 1985.0,
      "PixelRepresentation": 0,
      "PixelSpacing": [3.0, 3.0],
      "PregnancyStatus": 4,
      "ProcedureCodeSequence": [
        {
          "CodeMeaning": "MRI BRAIN WITHOUT IV CONTRAST",
          "CodeValue": "IMG269",
          "CodingSchemeDesignator": "L"
        }
],
      "ProtocolName": "REST_2",
      "RepetitionTime": 2500.0,
      "RequestAttributesSequence": [
        {
          "RequestedProcedureID": "125739966",
          "ScheduledProcedureStepDescription": "MRI BRAIN WITHOUT IV CONTRAST",
          "ScheduledProcedureStepID": "E9111054",
          "ScheduledProtocolCodeSequence": [
            {
              "CodeMeaning": "MRI BRAIN WITHOUT IV CONTRAST",
              "CodeValue": "651061",
              "CodingSchemeDesignator": "L"
            }
]
        }
],
      "RequestedProcedureCodeSequence": [
        {
          "CodeMeaning": "MRI BRAIN WITHOUT IV CONTRAST",
          "CodeValue": "IMG269",
          "CodingSchemeDesignator": "L"
        }
],
      "Rows": 504,
      "SAR": 0.1038470513892,
      "SamplesPerPixel": 1,
      "ScanOptions": "FS",
      "ScanningSequence": "EP",
      "SequenceName": "*epfid2d1_72",
      "SequenceVariant": "SK",
      "SeriesDescription": "MoCoSeries",
      "SeriesNumber": 8,
      "SeriesTime": "155738.278000",
      "SliceLocation": -52.285634238757,
      "SliceThickness": 3.0,
      "SmallestImagePixelValue": 0,
      "SmokingStatus": "UNKNOWN",
      "SoftwareVersions": "syngo MR E11",
      "SpacingBetweenSlices": 2.9999999723599,
      "SpecificCharacterSet": "ISO_IR 100",
      "StudyTime": "154558.568000",
      "TransmitCoilName": "Body",
      "VariableFlipAngleFlag": "N",
      "WindowCenterWidthExplanation": "Algo1",
      "dBdt": 0.0},
    "slices": {}
  },
  "time": {
    "samples": {
      "AcquisitionNumber": [1, 2, 3, 4, 5, 6, 7, 8, 9, 10, 11, 12, 13, 14, 15, 16, 17, 18, 19, 20, 21, 22, 23, 24, 25, 26, 27, 28, 29, 30, 31, 32, 33, 34, 35, 36, 37, 38, 39, 40, 41, 42, 43, 44, 45, 46, 47, 48, 49, 50, 51, 52, 53, 54, 55, 56, 57, 58, 59, 60, 61, 62, 63, 64, 65, 66, 67, 68, 69, 70, 71, 72, 73, 74, 75, 76, 77, 78, 79, 80, 81, 82, 83, 84, 85, 86, 87, 88, 89, 90, 91, 92, 93, 94, 95, 96, 97, 98, 99, 100, 101, 102, 103, 104, 105, 106, 107, 108, 109, 110, 111, 112, 113, 114, 115, 116, 117, 118, 119, 120, 121, 122],
      "AcquisitionTime": ["155629.092500", "155631.592500", "155634.092500", "155636.592500", "155639.092500", "155641.592500", "155644.092500", "155646.592500", "155649.092500", "155651.592500", "155654.092500", "155656.592500", "155659.092500", "155701.592500", "155704.092500", "155706.592500", "155709.092500", "155711.592500", "155714.092500", "155716.592500", "155719.092500", "155721.592500", "155724.092500", "155726.592500", "155729.092500", "155731.592500", "155734.092500", "155736.592500", "155739.092500", "155741.592500", "155744.092500", "155746.592500", "155749.092500", "155751.592500", "155754.092500", "155756.592500", "155759.092500", "155801.592500", "155804.092500", "155806.592500", "155809.092500", "155811.592500", "155814.092500", "155816.592500", "155819.092500", "155821.592500", "155824.092500", "155826.592500", "155829.092500", "155831.592500", "155834.092500", "155836.592500", "155839.092500", "155841.592500", "155844.092500", "155846.592500", "155849.092500", "155851.592500", "155854.092500", "155856.592500", "155859.092500", "155901.592500", "155904.092500", "155906.592500", "155909.092500", "155911.592500", "155914.092500", "155916.592500", "155919.092500", "155921.592500", "155924.092500", "155926.592500", "155929.092500", "155931.592500", "155934.092500", "155936.592500", "155939.092500", "155941.592500", "155944.092500", "155946.592500", "155949.092500", "155951.592500", "155954.092500", "155956.592500", "155959.092500", "160001.592500", "160004.092500", "160006.592500", "160009.092500", "160011.592500", "160014.092500", "160016.592500", "160019.092500", "160021.592500", "160024.092500", "160026.592500", "160029.092500", "160031.592500", "160034.092500", "160036.592500", "160039.092500", "160041.592500", "160044.092500", "160046.592500", "160049.092500", "160051.592500", "160054.092500", "160056.592500", "160059.092500", "160101.592500", "160104.092500", "160106.592500", "160109.092500", "160111.592500", "160114.092500", "160116.592500", "160119.092500", "160121.592500", "160124.092500", "160126.592500", "160129.092500", "160131.592500"],
      "ContentTime": ["155738.281000", "155738.284000", "155738.287000", "155738.289000", "155738.292000", "155738.295000", "155738.298000", "155738.301000", "155738.303000", "155738.322000", "155738.324000", "155738.327000", "155738.330000", "155738.333000", "155738.335000", "155738.338000", "155738.341000", "155738.344000", "155738.347000", "155738.349000", "155738.356000", "155738.359000", "155738.362000", "155738.364000", "155738.367000", "155738.370000", "155738.373000", "155837.833000", "155837.836000", "155837.839000", "155837.842000", "155837.845000", "155837.847000", "155837.850000", "155837.853000", "155837.856000", "155837.859000", "155837.862000", "155837.864000", "155837.867000", "155837.871000", "155837.874000", "155837.877000", "155837.879000", "155837.882000", "155837.885000", "155837.888000", "155837.891000", "155837.893000", "155837.896000", "155837.899000", "155937.831000", "155937.834000", "155937.837000", "155937.840000", "155937.843000", "155937.846000", "155937.849000", "155937.852000", "155937.854000", "155937.857000", "155937.860000", "155937.863000", "155937.866000", "155937.870000", "155937.873000", "155937.876000", "155937.878000", "155937.881000", "155937.884000", "155937.887000", "155937.889000", "155937.892000", "155937.895000", "155937.898000", "160037.824000", "160037.827000", "160037.830000", "160037.832000", "160037.835000", "160037.838000", "160037.841000", "160037.844000", "160037.847000", "160037.849000", "160037.852000", "160037.855000", "160037.858000", "160037.861000", "160037.863000", "160037.866000", "160037.870000", "160037.873000", "160037.876000", "160037.879000", "160037.882000", "160037.885000", "160037.887000", "160037.890000", "160133.081000", "160133.085000", "160133.087000", "160133.090000", "160133.093000", "160133.096000", "160133.099000", "160133.102000", "160133.105000", "160133.115000", "160133.118000", "160133.121000", "160133.124000", "160133.127000", "160133.130000", "160133.133000", "160133.135000", "160133.138000", "160133.141000", "160133.144000", "160133.147000", "160133.150000", "160133.153000"],
      "InstanceCreationTime": ["155738.281000", "155738.284000", "155738.287000", "155738.289000", "155738.292000", "155738.295000", "155738.298000", "155738.301000", "155738.303000", "155738.322000", "155738.324000", "155738.327000", "155738.330000", "155738.333000", "155738.335000", "155738.338000", "155738.341000", "155738.344000", "155738.347000", "155738.349000", "155738.356000", "155738.359000", "155738.362000", "155738.364000", "155738.367000", "155738.370000", "155738.373000", "155837.833000", "155837.836000", "155837.839000", "155837.842000", "155837.845000", "155837.847000", "155837.850000", "155837.853000", "155837.856000", "155837.859000", "155837.862000", "155837.864000", "155837.867000", "155837.871000", "155837.874000", "155837.877000", "155837.879000", "155837.882000", "155837.885000", "155837.888000", "155837.891000", "155837.893000", "155837.896000", "155837.899000", "155937.831000", "155937.834000", "155937.837000", "155937.840000", "155937.843000", "155937.846000", "155937.849000", "155937.852000", "155937.854000", "155937.857000", "155937.860000", "155937.863000", "155937.866000", "155937.870000", "155937.873000", "155937.876000", "155937.878000", "155937.881000", "155937.884000", "155937.887000", "155937.889000", "155937.892000", "155937.895000", "155937.898000", "160037.824000", "160037.827000", "160037.830000", "160037.832000", "160037.835000", "160037.838000", "160037.841000", "160037.844000", "160037.847000", "160037.849000", "160037.852000", "160037.855000", "160037.858000", "160037.861000", "160037.863000", "160037.866000", "160037.870000", "160037.873000", "160037.876000", "160037.879000", "160037.882000", "160037.885000", "160037.887000", "160037.890000", "160133.081000", "160133.085000", "160133.087000", "160133.090000", "160133.093000", "160133.096000", "160133.099000", "160133.102000", "160133.105000", "160133.115000", "160133.118000", "160133.121000", "160133.124000", "160133.127000", "160133.130000", "160133.133000", "160133.135000", "160133.138000", "160133.141000", "160133.144000", "160133.147000", "160133.150000", "160133.153000"],
      "InstanceNumber": [1, 2, 3, 4, 5, 6, 7, 8, 9, 10, 11, 12, 13, 14, 15, 16, 17, 18, 19, 20, 21, 22, 23, 24, 25, 26, 27, 28, 29, 30, 31, 32, 33, 34, 35, 36, 37, 38, 39, 40, 41, 42, 43, 44, 45, 46, 47, 48, 49, 50, 51, 52, 53, 54, 55, 56, 57, 58, 59, 60, 61, 62, 63, 64, 65, 66, 67, 68, 69, 70, 71, 72, 73, 74, 75, 76, 77, 78, 79, 80, 81, 82, 83, 84, 85, 86, 87, 88, 89, 90, 91, 92, 93, 94, 95, 96, 97, 98, 99, 100, 101, 102, 103, 104, 105, 106, 107, 108, 109, 110, 111, 112, 113, 114, 115, 116, 117, 118, 119, 120, 121, 122],
      "LargestImagePixelValue": [1606, 1835, 2091, 1693, 1641, 1544, 1879, 1509, 1676, 1810, 1954, 1972, 1587, 1623, 1914, 1807, 1676, 1597, 1593, 1912, 1577, 1562, 1502, 1730, 1540, 1530, 1502, 1637, 1918, 2007, 1600, 2401, 1782, 1574, 1733, 1797, 1721, 1909, 1594, 1553, 1698, 1566, 1624, 1622, 1847, 1782, 1880, 1571, 1549, 1534, 1820, 1847, 1606, 1580, 1809, 1683, 1722, 1942, 1660, 1582, 1954, 2001, 1821, 1597, 1599, 1617, 1640, 1593, 1575, 1737, 2020, 2129, 1717, 1655, 1628, 1587, 1644, 1671, 1931, 1890, 1515, 1803, 1810, 1692, 1580, 1604, 1688, 2037, 1683, 1688, 1705, 1943, 1652, 1652, 1660, 1662, 1712, 1646, 1625, 1667, 2036, 2319, 2144, 1704, 1912, 1613, 1656, 1625, 1680, 2065, 2182, 1869, 1646, 1643, 1641, 1773, 1643, 1961, 2012, 2002, 1953, 1633],
      "WindowCenter": [662.0, 662.0, 661.0, 660.0, 661.0, 661.0, 663.0, 660.0, 662.0, 662.0, 660.0, 661.0, 661.0, 662.0, 663.0, 662.0, 661.0, 661.0, 661.0, 662.0, 660.0, 660.0, 659.0, 660.0, 660.0, 660.0, 659.0, 661.0, 660.0, 660.0, 659.0, 648.0, 664.0, 661.0, 662.0, 660.0, 657.0, 658.0, 657.0, 660.0, 662.0, 661.0, 663.0, 663.0, 664.0, 663.0, 662.0, 661.0, 661.0, 660.0, 664.0, 663.0, 661.0, 662.0, 664.0, 664.0, 662.0, 663.0, 662.0, 661.0, 663.0, 663.0, 661.0, 660.0, 661.0, 662.0, 662.0, 660.0, 662.0, 664.0, 664.0, 662.0, 660.0, 662.0, 662.0, 662.0, 663.0, 663.0, 664.0, 663.0, 661.0, 663.0, 663.0, 662.0, 662.0, 663.0, 663.0, 663.0, 661.0, 664.0, 666.0, 666.0, 663.0, 663.0, 664.0, 663.0, 662.0, 664.0, 666.0, 667.0, 667.0, 666.0, 664.0, 662.0, 664.0, 663.0, 665.0, 666.0, 665.0, 667.0, 666.0, 663.0, 662.0, 665.0, 667.0, 667.0, 666.0, 667.0, 666.0, 665.0, 664.0, 663.0],
      "WindowWidth": [1402.0, 1401.0, 1399.0, 1398.0, 1401.0, 1400.0, 1403.0, 1397.0, 1403.0, 1403.0, 1398.0, 1398.0, 1399.0, 1402.0, 1404.0, 1402.0, 1400.0, 1401.0, 1400.0, 1400.0, 1396.0, 1398.0, 1395.0, 1398.0, 1397.0, 1397.0, 1396.0, 1399.0, 1396.0, 1396.0, 1396.0, 1367.0, 1408.0, 1401.0, 1403.0, 1397.0, 1390.0, 1393.0, 1390.0, 1397.0, 1401.0, 1400.0, 1403.0, 1403.0, 1406.0, 1403.0, 1402.0, 1399.0, 1400.0, 1398.0, 1406.0, 1405.0, 1401.0, 1402.0, 1407.0, 1406.0, 1403.0, 1405.0, 1401.0, 1400.0, 1404.0, 1404.0, 1400.0, 1398.0, 1399.0, 1402.0, 1402.0, 1397.0, 1403.0, 1406.0, 1407.0, 1402.0, 1398.0, 1401.0, 1403.0, 1402.0, 1403.0, 1404.0, 1405.0, 1405.0, 1400.0, 1405.0, 1405.0, 1402.0, 1403.0, 1405.0, 1404.0, 1403.0, 1399.0, 1408.0, 1413.0, 1412.0, 1406.0, 1405.0, 1406.0, 1404.0, 1403.0, 1408.0, 1411.0, 1414.0, 1414.0, 1411.0, 1407.0, 1402.0, 1406.0, 1406.0, 1410.0, 1411.0, 1409.0, 1413.0, 1411.0, 1404.0, 1403.0, 1409.0, 1413.0, 1414.0, 1413.0, 1413.0, 1411.0, 1409.0, 1407.0, 1404.0]
    },
    "slices": {}
  }
}