{
  "AcquisitionMatrixPE": 72,
  "AcquisitionNumber": 1,
  "AcquisitionTime": "16:11:18.955000",
  "BandwidthPerPixelPhaseEncode": 24.366,
  "BaseResolution": 72,
  "BodyPartExamined": "HEAD",
  "CoilCombinationMethod": "Sum of Squares",
  "ConsistencyInfo": "N4_VE11C_LATEST_20160120",
  "ConversionSoftware": "dcm2niix",
  "ConversionSoftwareVersion": "v1.0.20220720",
  "DerivedVendorReportedEchoSpacing": 0.000570011,
  "DeviceSerialNumber": "45219",
  "DwellTime": 3.5e-06,
  "EchoTime": 0.03,
  "EchoTrainLength": 72,
  "EffectiveEchoSpacing": 0.000570011,
  "FlipAngle": 80,
  "HeudiconvVersion": "1.1.6",
  "ImageComments": "Reference volume for motion correction.",
  "ImageOrientationPatientDICOM": [0.995465, -0.0258025, -0.0915608, 0.0139002, 0.991635, -0.128325],
  "ImageOrientationText": "Tra>Cor(-7.3)>Sag(-5.4)",
  "ImageType": [
    "ORIGINAL",
    "PRIMARY",
    "M",
    "ND",
    "NORM",
    "MOCO",
    "MOSAIC"
],
  "ImagingFrequency": 123.182,
  "InPlanePhaseEncodingDirectionDICOM": "COL",
  "InstitutionAddress": "First Avenue 660,New York,NYC,US,10016",
  "InstitutionName": "NYU LANGONE CBI",
  "InstitutionalDepartmentName": "Department",
  "MRAcquisitionType": "2D",
  "MagneticFieldStrength": 3,
  "Manufacturer": "Siemens",
  "ManufacturersModelName": "Skyra",
  "MatrixCoilMode": "SENSE",
  "Modality": "MR",
  "NonlinearGradientCorrection": false,
  "PartialFourier": 1,
  "PatientPosition": "HFS",
  "PercentPhaseFOV": 100,
  "PercentSampling": 100,
  "PhaseEncodingDirection": "j-",
  "PhaseEncodingSteps": 72,
  "PhaseResolution": 1,
  "PixelBandwidth": 1985,
  "ProcedureStepDescription": "MRI BRAIN WITHOUT IV CONTRAST",
  "ProtocolName": "TASK_CD_MoCo",
  "PulseSequenceDetails": "%SiemensSeq%\\ep2d_bold",
  "ReceiveCoilActiveElements": "HE1-4",
  "ReceiveCoilName": "HeadNeck_20",
  "ReconMatrixPE": 72,
  "RepetitionTime": 2.5,
  "SAR": 0.103884,
  "ScanOptions": "FS",
  "ScanningSequence": "EP",
  "SequenceName": "*epfid2d1_72",
  "SequenceVariant": "SK",
  "SeriesDescription": "MoCoSeries",
  "SeriesNumber": 14,
  "ShimSetting": [-922, -6978, 4997, 264, -205, -397, 476, -107],
  "SliceThickness": 3,
  "SliceTiming": [1.24, 0, 1.305, 0.065, 1.3725, 0.1325, 1.4375, 0.1975, 1.5025, 0.2625, 1.5675, 0.3275, 1.6325, 0.3925, 1.6975, 0.4575, 1.7625, 0.5225, 1.8275, 0.5875, 1.8925, 0.6525, 1.9575, 0.7175, 2.025, 0.785, 2.09, 0.85, 2.155, 0.915, 2.22, 0.98, 2.285, 1.045, 2.35, 1.11, 2.415, 1.175],
  "SoftwareVersions": "syngo MR E11",
  "SpacingBetweenSlices": 3,
  "StationName": "MRC45219",
  "TaskName": "cd",
  "TotalReadoutTime": 0.0404708,
  "TxRefAmp": 424.19,
  "dcmmeta_affine": [
    [-2.9863953590393066, 0.04170067235827446, -0.2823180556297302, 109.15480041503906],
    [0.07740763574838638, 2.9749042987823486, -0.3794099688529968, -108.03404998779297],
    [-0.27468252182006836, 0.3849739134311676, 2.962489604949951, -56.38153839111328],
    [0.0, 0.0, 0.0, 1.0]
],
  "dcmmeta_reorient_transform": [
    [0.0, -1.0, 0.0, 71.0],
    [1.0, 0.0, 0.0, 0.0],
    [0.0, 0.0, 1.0, 0.0],
    [0.0, 0.0, 0.0, 1.0]
],
  "dcmmeta_shape": [72, 72, 38, 132],
  "dcmmeta_slice_dim": 2,
  "dcmmeta_version": 0.6,
  "global": {
    "const": {
      "AcquisitionMatrix": [72, 0, 0, 72],
      "AngioFlag": "N",
      "BitsAllocated": 16,
      "BitsStored": 12,
      "BodyPartExamined": "HEAD",
      "Columns": 504,
      "CountryOfResidence": "United States of America [1]",
      "EchoNumbers": 1,
      "EchoTime": 30.0,
      "EchoTrainLength": 72,
      "FlipAngle": 80.0,
      "HighBit": 11,
      "ImageOrientationPatient": [0.99546513790842, -0.0258025443384, -0.0915608426929, 0.01390022444533, 0.99163479723341, -0.1283246378379],
      "ImagePositionPatient": [-766.18430010009, -729.04346280688, 113.43739895879],
      "ImageType": [
        "ORIGINAL",
        "PRIMARY",
        "M",
        "ND",
        "NORM",
        "MOCO",
        "MOSAIC"
],
      "ImagedNucleus": "1H",
      "ImagingFrequency": 123.18213,
      "InPlanePhaseEncodingDirection": "COL",
      "MRAcquisitionType": "2D",
      "MagneticFieldStrength": 3.0,
      "Manufacturer": "SIEMENS",
      "ManufacturerModelName": "Skyra",
      "Modality": "MR",
      "NumberOfAverages": 1.0,
      "NumberOfPhaseEncodingSteps": 72,
      "PercentPhaseFieldOfView": 100.0,
      "PercentSampling": 100.0,
      "PerformedProcedureStepStartTime": "154558.726000",
      "PhotometricInterpretation": "MONOCHROME2",
      "PixelBandwidth": 1985.0,
      "PixelRepresentation": 0,
      "PixelSpacing": [3.0, 3.0],
      "PregnancyStatus": 4,
      "ProcedureCodeSequence": [
        {
          "CodeMeaning": "MRI BRAIN WITHOUT IV CONTRAST",
          "CodeValue": "IMG269",
          "CodingSchemeDesignator": "L"
        }
],
      "ProtocolName": "TASK_CD",
      "RepetitionTime": 2500.0,
      "RequestAttributesSequence": [
        {
          "RequestedProcedureID": "125739966",
          "ScheduledProcedureStepDescription": "MRI BRAIN WITHOUT IV CONTRAST",
          "ScheduledProcedureStepID": "E9111054",
          "ScheduledProtocolCodeSequence": [
            {
              "CodeMeaning": "MRI BRAIN WITHOUT IV CONTRAST",
              "CodeValue": "651061",
              "CodingSchemeDesignator": "L"
            }
]
        }
],
      "RequestedProcedureCodeSequence": [
        {
          "CodeMeaning": "MRI BRAIN WITHOUT IV CONTRAST",
          "CodeValue": "IMG269",
          "CodingSchemeDesignator": "L"
        }
],
      "Rows": 504,
      "SAR": 0.10388437932687,
      "SamplesPerPixel": 1,
      "ScanOptions": "FS",
      "ScanningSequence": "EP",
      "SequenceName": "*epfid2d1_72",
      "SequenceVariant": "SK",
      "SeriesDescription": "MoCoSeries",
      "SeriesNumber": 14,
      "SeriesTime": "161217.842000",
      "SliceLocation": -52.285634238757,
      "SliceThickness": 3.0,
      "SmallestImagePixelValue": 0,
      "SmokingStatus": "UNKNOWN",
      "SoftwareVersions": "syngo MR E11",
      "SpacingBetweenSlices": 2.9999999723599,
      "SpecificCharacterSet": "ISO_IR 100",
      "StudyTime": "154558.568000",
      "TransmitCoilName": "Body",
      "VariableFlipAngleFlag": "N",
      "WindowCenterWidthExplanation": "Algo1",
      "dBdt": 0.0},
    "slices": {}
  },
  "time": {
    "samples": {
      "AcquisitionNumber": [1, 2, 3, 4, 5, 6, 7, 8, 9, 10, 11, 12, 13, 14, 15, 16, 17, 18, 19, 20, 21, 22, 23, 24, 25, 26, 27, 28, 29, 30, 31, 32, 33, 34, 35, 36, 37, 38, 39, 40, 41, 42, 43, 44, 45, 46, 47, 48, 49, 50, 51, 52, 53, 54, 55, 56, 57, 58, 59, 60, 61, 62, 63, 64, 65, 66, 67, 68, 69, 70, 71, 72, 73, 74, 75, 76, 77, 78, 79, 80, 81, 82, 83, 84, 85, 86, 87, 88, 89, 90, 91, 92, 93, 94, 95, 96, 97, 98, 99, 100, 101, 102, 103, 104, 105, 106, 107, 108, 109, 110, 111, 112, 113, 114, 115, 116, 117, 118, 119, 120, 121, 122, 123, 124, 125, 126, 127, 128, 129, 130, 131, 132],
      "AcquisitionTime": ["161118.955000", "161121.455000", "161123.955000", "161126.455000", "161128.955000", "161131.455000", "161133.955000", "161136.455000", "161138.955000", "161141.455000", "161143.955000", "161146.455000", "161148.955000", "161151.455000", "161153.955000", "161156.455000", "161158.955000", "161201.455000", "161203.955000", "161206.455000", "161208.955000", "161211.455000", "161213.955000", "161216.455000", "161218.955000", "161221.455000", "161223.955000", "161226.455000", "161228.955000", "161231.455000", "161233.955000", "161236.455000", "161238.955000", "161241.455000", "161243.955000", "161246.455000", "161248.955000", "161251.455000", "161253.955000", "161256.455000", "161258.955000", "161301.455000", "161303.955000", "161306.455000", "161308.955000", "161311.455000", "161313.955000", "161316.455000", "161318.955000", "161321.455000", "161323.955000", "161326.455000", "161328.955000", "161331.455000", "161333.955000", "161336.455000", "161338.955000", "161341.455000", "161343.955000", "161346.455000", "161348.955000", "161351.455000", "161353.955000", "161356.455000", "161358.955000", "161401.455000", "161403.955000", "161406.455000", "161408.955000", "161411.455000", "161413.955000", "161416.455000", "161418.955000", "161421.455000", "161423.955000", "161426.455000", "161428.955000", "161431.455000", "161433.955000", "161436.455000", "161438.955000", "161441.455000", "161443.955000", "161446.455000", "161448.955000", "161451.455000", "161453.955000", "161456.455000", "161458.955000", "161501.455000", "161503.955000", "161506.455000", "161508.955000", "161511.455000", "161513.955000", "161516.455000", "161518.955000", "161521.455000", "161523.955000", "161526.455000", "161528.955000", "161531.455000", "161533.955000", "161536.455000", "161538.955000", "161541.455000", "161543.955000", "161546.455000", "161548.955000", "161551.455000", "161553.955000", "161556.455000", "161558.955000", "161601.455000", "161603.955000", "161606.455000", "161608.955000", "161611.455000", "161613.955000", "161616.455000", "161618.955000", "161621.455000", "161623.955000", "161626.455000", "161628.955000", "161631.455000", "161633.955000", "161636.455000", "161638.955000", "161641.455000", "161643.955000", "161646.455000"],
      "ContentTime": ["161217.845000", "161217.848000", "161217.851000", "161217.854000", "161217.857000", "161217.859000", "161217.862000", "161217.865000", "161217.868000", "161217.871000", "161217.874000", "161217.877000", "161217.879000", "161217.894000", "161217.897000", "161217.900000", "161217.902000", "161217.905000", "161217.908000", "161217.911000", "161217.914000", "161217.917000", "161217.919000", "161317.828000", "161317.831000", "161317.834000", "161317.837000", "161317.839000", "161317.842000", "161317.850000", "161317.853000", "161317.856000", "161317.858000", "161317.861000", "161317.864000", "161317.867000", "161317.870000", "161317.872000", "161317.875000", "161317.878000", "161317.881000", "161317.883000", "161317.886000", "161317.889000", "161317.892000", "161317.895000", "161317.898000", "161417.830000", "161417.833000", "161417.836000", "161417.839000", "161417.841000", "161417.845000", "161417.848000", "161417.850000", "161417.853000", "161417.856000", "161417.859000", "161417.862000", "161417.864000", "161417.867000", "161417.870000", "161417.873000", "161417.876000", "161417.878000", "161417.881000", "161417.884000", "161417.887000", "161417.890000", "161417.892000", "161417.895000", "161517.825000", "161517.828000", "161517.831000", "161517.834000", "161517.836000", "161517.839000", "161517.842000", "161517.845000", "161517.848000", "161517.851000", "161517.854000", "161517.857000", "161517.860000", "161517.863000", "161517.865000", "161517.868000", "161517.871000", "161517.874000", "161517.876000", "161517.879000", "161517.882000", "161517.885000", "161517.888000", "161517.890000", "161617.819000", "161617.822000", "161617.825000", "161617.827000", "161617.830000", "161617.833000", "161617.836000", "161617.839000", "161617.842000", "161617.846000", "161617.849000", "161617.852000", "161617.854000", "161617.857000", "161617.860000", "161617.863000", "161617.866000", "161617.869000", "161617.871000", "161617.874000", "161617.877000", "161617.880000", "161617.883000", "161617.885000", "161648.483000", "161648.487000", "161648.490000", "161648.493000", "161648.496000", "161648.499000", "161648.501000", "161648.504000", "161648.507000", "161648.510000", "161648.513000", "161648.516000", "161648.518000"],
      "InstanceCreationTime": ["161217.845000", "161217.848000", "161217.851000", "161217.854000", "161217.857000", "161217.859000", "161217.862000", "161217.865000", "161217.868000", "161217.871000", "161217.874000", "161217.877000", "161217.879000", "161217.894000", "161217.897000", "161217.900000", "161217.902000", "161217.905000", "161217.908000", "161217.911000", "161217.914000", "161217.917000", "161217.919000", "161317.828000", "161317.831000", "161317.834000", "161317.837000", "161317.839000", "161317.842000", "161317.850000", "161317.853000", "161317.856000", "161317.858000", "161317.861000", "161317.864000", "161317.867000", "161317.870000", "161317.872000", "161317.875000", "161317.878000", "161317.881000", "161317.883000", "161317.886000", "161317.889000", "161317.892000", "161317.895000", "161317.898000", "161417.830000", "161417.833000", "161417.836000", "161417.839000", "161417.841000", "161417.845000", "161417.848000", "161417.850000", "161417.853000", "161417.856000", "161417.859000", "161417.862000", "161417.864000", "161417.867000", "161417.870000", "161417.873000", "161417.876000", "161417.878000", "161417.881000", "161417.884000", "161417.887000", "161417.890000", "161417.892000", "161417.895000", "161517.825000", "161517.828000", "161517.831000", "161517.834000", "161517.836000", "161517.839000", "161517.842000", "161517.845000", "161517.848000", "161517.851000", "161517.854000", "161517.857000", "161517.860000", "161517.863000", "161517.865000", "161517.868000", "161517.871000", "161517.874000", "161517.876000", "161517.879000", "161517.882000", "161517.885000", "161517.888000", "161517.890000", "161617.819000", "161617.822000", "161617.825000", "161617.827000", "161617.830000", "161617.833000", "161617.836000", "161617.839000", "161617.842000", "161617.846000", "161617.849000", "161617.852000", "161617.854000", "161617.857000", "161617.860000", "161617.863000", "161617.866000", "161617.869000", "161617.871000", "161617.874000", "161617.877000", "161617.880000", "161617.883000", "161617.885000", "161648.483000", "161648.487000", "161648.490000", "161648.493000", "161648.496000", "161648.499000", "161648.501000", "161648.504000", "161648.507000", "161648.510000", "161648.513000", "161648.516000", "161648.518000"],
      "InstanceNumber": [1, 2, 3, 4, 5, 6, 7, 8, 9, 10, 11, 12, 13, 14, 15, 16, 17, 18, 19, 20, 21, 22, 23, 24, 25, 26, 27, 28, 29, 30, 31, 32, 33, 34, 35, 36, 37, 38, 39, 40, 41, 42, 43, 44, 45, 46, 47, 48, 49, 50, 51, 52, 53, 54, 55, 56, 57, 58, 59, 60, 61, 62, 63, 64, 65, 66, 67, 68, 69, 70, 71, 72, 73, 74, 75, 76, 77, 78, 79, 80, 81, 82, 83, 84, 85, 86, 87, 88, 89, 90, 91, 92, 93, 94, 95, 96, 97, 98, 99, 100, 101, 102, 103, 104, 105, 106, 107, 108, 109, 110, 111, 112, 113, 114, 115, 116, 117, 118, 119, 120, 121, 122, 123, 124, 125, 126, 127, 128, 129, 130, 131, 132],
      "LargestImagePixelValue": [2957, 2472, 2554, 2063, 2915, 2701, 2444, 1977, 2439, 2708, 2608, 2217, 2886, 2989, 1729, 2714, 2813, 1831, 2290, 2840, 2280, 2271, 2686, 2649, 2646, 1606, 2657, 2489, 2320, 2749, 2238, 2606, 2106, 2756, 2114, 1759, 2728, 2527, 2271, 2529, 2823, 3029, 1941, 2107, 2496, 2123, 1623, 2315, 2563, 2637, 2345, 1906, 1730, 2088, 2131, 2136, 2185, 2273, 2306, 1811, 1764, 1615, 1703, 2261, 1946, 2097, 2094, 2326, 2057, 2218, 1848, 2254, 2101, 2374, 2163, 1877, 2318, 2364, 2035, 2402, 1954, 2408, 2838, 2808, 2299, 2635, 2603, 2712, 2212, 1736, 2452, 2514, 1714, 2099, 2589, 1927, 3057, 2995, 1979, 1701, 2684, 2419, 2144, 2386, 2915, 2577, 1915, 2145, 1949, 2880, 3112, 1876, 2213, 2546, 2520, 2726, 1633, 3041, 2808, 2515, 2430, 1766, 1660, 2247, 2940, 2797, 2089, 1965, 2210, 2581, 2679, 2931],
      "WindowCenter": [668.0, 664.0, 664.0, 663.0, 665.0, 663.0, 663.0, 662.0, 665.0, 662.0, 658.0, 664.0, 665.0, 663.0, 660.0, 663.0, 663.0, 662.0, 664.0, 665.0, 664.0, 665.0, 663.0, 665.0, 662.0, 653.0, 661.0, 664.0, 664.0, 664.0, 663.0, 665.0, 664.0, 666.0, 664.0, 664.0, 669.0, 664.0, 666.0, 666.0, 665.0, 664.0, 659.0, 653.0, 652.0, 660.0, 657.0, 660.0, 661.0, 662.0, 659.0, 658.0, 660.0, 660.0, 665.0, 663.0, 664.0, 661.0, 659.0, 657.0, 659.0, 658.0, 662.0, 665.0, 663.0, 664.0, 665.0, 665.0, 662.0, 662.0, 661.0, 664.0, 663.0, 663.0, 662.0, 661.0, 663.0, 663.0, 660.0, 662.0, 664.0, 665.0, 666.0, 666.0, 663.0, 663.0, 663.0, 661.0, 659.0, 659.0, 663.0, 663.0, 660.0, 663.0, 664.0, 661.0, 663.0, 661.0, 659.0, 659.0, 665.0, 665.0, 665.0, 665.0, 665.0, 663.0, 661.0, 660.0, 662.0, 664.0, 664.0, 660.0, 663.0, 666.0, 665.0, 664.0, 660.0, 665.0, 662.0, 664.0, 662.0, 652.0, 657.0, 658.0, 659.0, 657.0, 654.0, 663.0, 665.0, 666.0, 664.0, 662.0],
      "WindowWidth": [1417.0, 1408.0, 1407.0, 1405.0, 1409.0, 1406.0, 1405.0, 1404.0, 1410.0, 1404.0, 1394.0, 1408.0, 1409.0, 1405.0, 1400.0, 1404.0, 1405.0, 1403.0, 1408.0, 1410.0, 1408.0, 1409.0, 1406.0, 1411.0, 1401.0, 1382.0, 1401.0, 1407.0, 1408.0, 1407.0, 1404.0, 1410.0, 1408.0, 1413.0, 1409.0, 1408.0, 1419.0, 1406.0, 1413.0, 1413.0, 1411.0, 1406.0, 1396.0, 1382.0, 1380.0, 1399.0, 1391.0, 1397.0, 1402.0, 1402.0, 1397.0, 1395.0, 1399.0, 1398.0, 1410.0, 1407.0, 1408.0, 1402.0, 1397.0, 1392.0, 1396.0, 1395.0, 1404.0, 1410.0, 1407.0, 1408.0, 1410.0, 1410.0, 1403.0, 1404.0, 1403.0, 1407.0, 1406.0, 1405.0, 1404.0, 1402.0, 1406.0, 1405.0, 1399.0, 1403.0, 1407.0, 1409.0, 1413.0, 1411.0, 1406.0, 1406.0, 1404.0, 1400.0, 1397.0, 1397.0, 1406.0, 1405.0, 1398.0, 1406.0, 1407.0, 1401.0, 1404.0, 1400.0, 1396.0, 1398.0, 1409.0, 1409.0, 1410.0, 1411.0, 1411.0, 1406.0, 1400.0, 1399.0, 1403.0, 1407.0, 1407.0, 1399.0, 1406.0, 1413.0, 1409.0, 1408.0, 1400.0, 1409.0, 1404.0, 1407.0, 1403.0, 1379.0, 1393.0, 1393.0, 1394.0, 1391.0, 1384.0, 1404.0, 1410.0, 1412.0, 1408.0, 1404.0]
    },
    "slices": {}
  }
}