{
  "AcquisitionMatrixPE": 72,
  "AcquisitionNumber": 1,
  "AcquisitionTime": "21:06:40.000000",
  "BandwidthPerPixelPhaseEncode": 24.366,
  "BaseResolution": 72,
  "BodyPartExamined": "BRAIN",
  "CoilCombinationMethod": "Sum of Squares",
  "ConsistencyInfo": "N4_VE11C_LATEST_20160120",
  "ConversionSoftware": "dcm2niix",
  "ConversionSoftwareVersion": "v1.0.20220720",
  "DerivedVendorReportedEchoSpacing": 0.000570011,
  "DeviceSerialNumber": "45219",
  "DwellTime": 3.5e-06,
  "EchoTime": 0.03,
  "EchoTrainLength": 72,
  "EffectiveEchoSpacing": 0.000570011,
  "FlipAngle": 80,
  "HeudiconvVersion": "1.1.6",
  "ImageOrientationPatientDICOM": [1, 0, 0, 0, 0.971961, 0.235142],
  "ImageOrientationText": "Tra>Cor(13.6)",
  "ImageType": [
    "ORIGINAL",
    "PRIMARY",
    "M",
    "ND",
    "NORM",
    "MOSAIC"
],
  "ImagingFrequency": 123.182,
  "InPlanePhaseEncodingDirectionDICOM": "COL",
  "InstitutionAddress": "First Avenue 660,New York,NYC,US,10016",
  "InstitutionName": "NYU LANGONE CBI",
  "InstitutionalDepartmentName": "Department",
  "MRAcquisitionType": "2D",
  "MagneticFieldStrength": 3,
  "Manufacturer": "Siemens",
  "ManufacturersModelName": "Skyra",
  "MatrixCoilMode": "SENSE",
  "Modality": "MR",
  "NonlinearGradientCorrection": false,
  "PartialFourier": 1,
  "PatientPosition": "HFS",
  "PercentPhaseFOV": 100,
  "PercentSampling": 100,
  "PhaseEncodingDirection": "j-",
  "PhaseEncodingSteps": 72,
  "PhaseResolution": 1,
  "PixelBandwidth": 1985,
  "ProcedureStepDescription": "MRI BRAIN WITHOUT IV CONTRAST",
  "ProtocolName": "TASK_AB",
  "PulseSequenceDetails": "%SiemensSeq%\\ep2d_bold",
  "ReceiveCoilActiveElements": "HE1-4",
  "ReceiveCoilName": "HeadNeck_20",
  "ReconMatrixPE": 72,
  "RepetitionTime": 2.5,
  "SAR": 0.114752,
  "ScanOptions": "FS",
  "ScanningSequence": "EP",
  "SequenceName": "*epfid2d1_72",
  "SequenceVariant": "SK",
  "SeriesDescription": "TASK_AB",
  "SeriesNumber": 5,
  "ShimSetting": [-898, -7009, 5024, 191, -369, 511, 505, -135],
  "SliceThickness": 3,
  "SliceTiming": [1.24, 0, 1.305, 0.065, 1.37, 0.13, 1.435, 0.195, 1.5, 0.26, 1.5675, 0.3275, 1.6325, 0.3925, 1.6975, 0.4575, 1.7625, 0.5225, 1.8275, 0.5875, 1.8925, 0.6525, 1.9575, 0.7175, 2.0225, 0.7825, 2.0875, 0.8475, 2.155, 0.915, 2.22, 0.98, 2.285, 1.045, 2.35, 1.11, 2.415, 1.175],
  "SoftwareVersions": "syngo MR E11",
  "SpacingBetweenSlices": 3,
  "StationName": "MRC45219",
  "TaskName": "ab",
  "TotalReadoutTime": 0.0404708,
  "TxRefAmp": 397.218,
  "dcmmeta_affine": [
    [-3.0, 0.0, 0.0, 109.06024169921875],
    [0.0, 2.9158830642700195, 0.7054262757301331, -112.19680786132812],
    [0.0, -0.7054263353347778, 2.9158830642700195, -12.951119422912598],
    [0.0, 0.0, 0.0, 1.0]
],
  "dcmmeta_reorient_transform": [
    [0.0, -1.0, 0.0, 71.0],
    [1.0, 0.0, 0.0, 0.0],
    [0.0, 0.0, 1.0, 0.0],
    [0.0, 0.0, 0.0, 1.0]
],
  "dcmmeta_shape": [72, 72, 38, 132],
  "dcmmeta_slice_dim": 2,
  "dcmmeta_version": 0.6,
  "global": {
    "const": {
      "AccessionNumber": "REMOVED",
      "AcquisitionMatrix": [72, 0, 0, 72],
      "AngioFlag": "N",
      "BitsAllocated": 16,
      "BitsStored": 12,
      "BodyPartExamined": "BRAIN",
      "Columns": 504,
      "CountryOfResidence": "REMOVED",
      "DeidentificationMethod": "anonymize.default",
      "DeidentificationMethodCodeSequence": [
        {
          "CodeMeaning": "Basic Anonymization",
          "CodeValue": "113199",
          "CodingSchemeDesignator": "2012CDX"
        }
],
      "EchoNumbers": 1,
      "EchoTime": 30.0,
      "EchoTrainLength": 72,
      "FlipAngle": 80.0,
      "HighBit": 11,
      "ImageOrientationPatient": [1.0, 0.0, 0.0, 0.0, 0.97196100271939, 0.23514210425341],
      "ImagePositionPatient": [-757.06024098396, -724.66161839766, -215.40847161758],
      "ImageType": [
        "ORIGINAL",
        "PRIMARY",
        "M",
        "ND",
        "NORM",
        "MOSAIC"
],
      "ImagedNucleus": "1H",
      "ImagingFrequency": 123.181968,
      "InPlanePhaseEncodingDirection": "COL",
      "MRAcquisitionType": "2D",
      "MagneticFieldStrength": 3.0,
      "Manufacturer": "SIEMENS",
      "ManufacturerModelName": "Skyra",
      "Modality": "MR",
      "NumberOfAverages": 1.0,
      "NumberOfPhaseEncodingSteps": 72,
      "PercentPhaseFieldOfView": 100.0,
      "PercentSampling": 100.0,
      "PerformedProcedureStepStartTime": "210142.423000",
      "PhotometricInterpretation": "MONOCHROME2",
      "PixelBandwidth": 1985.0,
      "PixelRepresentation": 0,
      "PixelSpacing": [3.0, 3.0],
      "PregnancyStatus": 0,
      "ProcedureCodeSequence": [
        {
          "CodeMeaning": "MRI BRAIN WITHOUT IV CONTRAST",
          "CodeValue": "IMG269",
          "CodingSchemeDesignator": "L"
        }
],
      "ProtocolName": "TASK_AB",
      "RepetitionTime": 2500.0,
      "RequestAttributesSequence": [
        {
          "RequestedProcedureID": "293873041",
          "ScheduledProcedureStepDescription": "MRI BRAIN WITHOUT IV CONTRAST",
          "ScheduledProcedureStepID": "E8943926",
          "ScheduledProtocolCodeSequence": [
            {
              "CodeMeaning": "MRI BRAIN WITHOUT IV CONTRAST",
              "CodeValue": "651061",
              "CodingSchemeDesignator": "L"
            }
]
        }
],
      "RequestedProcedureCodeSequence": [
        {
          "CodeMeaning": "MRI BRAIN WITHOUT IV CONTRAST",
          "CodeValue": "IMG269",
          "CodingSchemeDesignator": "L"
        }
],
      "Rows": 504,
      "SAR": 0.11475224113031,
      "SamplesPerPixel": 1,
      "ScanOptions": "FS",
      "ScanningSequence": "EP",
      "SequenceName": "*epfid2d1_72",
      "SequenceVariant": "SK",
      "SeriesDescription": "TASK_AB",
      "SeriesNumber": 5,
      "SeriesTime": "210745.074000",
      "SliceLocation": -38.970176245968,
      "SliceThickness": 3.0,
      "SmallestImagePixelValue": 0,
      "SmokingStatus": "REMOVED",
      "SoftwareVersions": "syngo MR E11",
      "SpacingBetweenSlices": 2.9999999368582,
      "SpecificCharacterSet": "ISO_IR 100",
      "StudyID": "REMOVED",
      "StudyTime": "210142.268000",
      "TransmitCoilName": "Body",
      "VariableFlipAngleFlag": "N",
      "WindowCenterWidthExplanation": "Algo1",
      "dBdt": 0.0},
    "slices": {}
  },
  "time": {
    "samples": {
      "AcquisitionNumber": [1, 2, 3, 4, 5, 6, 7, 8, 9, 10, 11, 12, 13, 14, 15, 16, 17, 18, 19, 20, 21, 22, 23, 24, 25, 26, 27, 28, 29, 30, 31, 32, 33, 34, 35, 36, 37, 38, 39, 40, 41, 42, 43, 44, 45, 46, 47, 48, 49, 50, 51, 52, 53, 54, 55, 56, 57, 58, 59, 60, 61, 62, 63, 64, 65, 66, 67, 68, 69, 70, 71, 72, 73, 74, 75, 76, 77, 78, 79, 80, 81, 82, 83, 84, 85, 86, 87, 88, 89, 90, 91, 92, 93, 94, 95, 96, 97, 98, 99, 100, 101, 102, 103, 104, 105, 106, 107, 108, 109, 110, 111, 112, 113, 114, 115, 116, 117, 118, 119, 120, 121, 122, 123, 124, 125, 126, 127, 128, 129, 130, 131, 132],
      "AcquisitionTime": ["210640.000000", "210642.500000", "210645.000000", "210647.500000", "210650.000000", "210652.500000", "210655.000000", "210657.500000", "210700.000000", "210702.500000", "210705.000000", "210707.500000", "210710.000000", "210712.500000", "210715.000000", "210717.500000", "210720.000000", "210722.500000", "210725.000000", "210727.500000", "210730.000000", "210732.500000", "210735.000000", "210737.500000", "210740.000000", "210742.500000", "210745.000000", "210747.500000", "210750.000000", "210752.500000", "210755.000000", "210757.500000", "210800.000000", "210802.500000", "210805.000000", "210807.500000", "210810.000000", "210812.500000", "210815.000000", "210817.500000", "210820.000000", "210822.500000", "210825.000000", "210827.500000", "210830.000000", "210832.500000", "210835.000000", "210837.500000", "210840.000000", "210842.500000", "210845.000000", "210847.500000", "210850.000000", "210852.500000", "210855.000000", "210857.500000", "210900.000000", "210902.500000", "210905.000000", "210907.500000", "210910.000000", "210912.500000", "210915.000000", "210917.500000", "210920.000000", "210922.500000", "210925.000000", "210927.500000", "210930.000000", "210932.500000", "210935.000000", "210937.500000", "210940.000000", "210942.500000", "210945.000000", "210947.500000", "210950.000000", "210952.500000", "210955.000000", "210957.500000", "211000.000000", "211002.500000", "211005.000000", "211007.500000", "211010.000000", "211012.500000", "211015.000000", "211017.500000", "211020.000000", "211022.500000", "211025.000000", "211027.500000", "211030.000000", "211032.500000", "211035.000000", "211037.500000", "211040.000000", "211042.500000", "211045.000000", "211047.500000", "211050.000000", "211052.500000", "211055.000000", "211057.500000", "211100.000000", "211102.500000", "211105.000000", "211107.500000", "211110.000000", "211112.500000", "211115.000000", "211117.500000", "211120.000000", "211122.500000", "211125.000000", "211127.500000", "211130.000000", "211132.500000", "211135.000000", "211137.500000", "211140.000000", "211142.500000", "211145.000000", "211147.500000", "211150.000000", "211152.500000", "211155.000000", "211157.500000", "211200.000000", "211202.500000", "211205.000000", "211207.500000"],
      "ContentTime": ["210745.078000", "210745.082000", "210745.084000", "210745.087000", "210745.090000", "210745.092000", "210745.095000", "210745.098000", "210745.101000", "210745.103000", "210745.106000", "210745.109000", "210745.111000", "210745.114000", "210745.116000", "210745.119000", "210745.122000", "210745.125000", "210745.127000", "210745.130000", "210745.133000", "210745.135000", "210745.138000", "210745.141000", "210745.143000", "210745.146000", "210845.073000", "210845.076000", "210845.079000", "210845.081000", "210845.084000", "210845.087000", "210845.089000", "210845.092000", "210845.095000", "210845.097000", "210845.100000", "210845.103000", "210845.105000", "210845.116000", "210845.119000", "210845.121000", "210845.124000", "210845.127000", "210845.129000", "210845.132000", "210845.134000", "210845.137000", "210845.140000", "210845.143000", "210945.073000", "210945.076000", "210945.078000", "210945.081000", "210945.084000", "210945.086000", "210945.089000", "210945.092000", "210945.094000", "210945.097000", "210945.100000", "210945.102000", "210945.105000", "210945.108000", "210945.110000", "210945.113000", "210945.116000", "210945.118000", "210945.121000", "210945.124000", "210945.126000", "210945.129000", "210945.132000", "210945.134000", "211045.073000", "211045.076000", "211045.078000", "211045.081000", "211045.084000", "211045.086000", "211045.089000", "211045.092000", "211045.094000", "211045.097000", "211045.100000", "211045.102000", "211045.105000", "211045.108000", "211045.111000", "211045.113000", "211045.116000", "211045.119000", "211045.121000", "211045.124000", "211045.127000", "211045.129000", "211045.132000", "211045.135000", "211145.073000", "211145.076000", "211145.079000", "211145.081000", "211145.084000", "211145.087000", "211145.089000", "211145.092000", "211145.095000", "211145.097000", "211145.100000", "211145.103000", "211145.105000", "211145.108000", "211145.111000", "211145.113000", "211145.116000", "211145.119000", "211145.122000", "211145.124000", "211145.127000", "211145.130000", "211145.132000", "211145.135000", "211209.047000", "211209.059000", "211209.062000", "211209.064000", "211209.067000", "211209.070000", "211209.073000", "211209.076000", "211209.079000", "211209.083000"],
      "InstanceCreationTime": ["210745.078000", "210745.082000", "210745.084000", "210745.087000", "210745.090000", "210745.092000", "210745.095000", "210745.098000", "210745.101000", "210745.103000", "210745.106000", "210745.109000", "210745.111000", "210745.114000", "210745.116000", "210745.119000", "210745.122000", "210745.125000", "210745.127000", "210745.130000", "210745.133000", "210745.135000", "210745.138000", "210745.141000", "210745.143000", "210745.146000", "210845.073000", "210845.076000", "210845.079000", "210845.081000", "210845.084000", "210845.087000", "210845.089000", "210845.092000", "210845.095000", "210845.097000", "210845.100000", "210845.103000", "210845.105000", "210845.116000", "210845.119000", "210845.121000", "210845.124000", "210845.127000", "210845.129000", "210845.132000", "210845.134000", "210845.137000", "210845.140000", "210845.143000", "210945.073000", "210945.076000", "210945.078000", "210945.081000", "210945.084000", "210945.086000", "210945.089000", "210945.092000", "210945.094000", "210945.097000", "210945.100000", "210945.102000", "210945.105000", "210945.108000", "210945.110000", "210945.113000", "210945.116000", "210945.118000", "210945.121000", "210945.124000", "210945.126000", "210945.129000", "210945.132000", "210945.134000", "211045.073000", "211045.076000", "211045.078000", "211045.081000", "211045.084000", "211045.086000", "211045.089000", "211045.092000", "211045.094000", "211045.097000", "211045.100000", "211045.102000", "211045.105000", "211045.108000", "211045.111000", "211045.113000", "211045.116000", "211045.119000", "211045.121000", "211045.124000", "211045.127000", "211045.129000", "211045.132000", "211045.135000", "211145.073000", "211145.076000", "211145.079000", "211145.081000", "211145.084000", "211145.087000", "211145.089000", "211145.092000", "211145.095000", "211145.097000", "211145.100000", "211145.103000", "211145.105000", "211145.108000", "211145.111000", "211145.113000", "211145.116000", "211145.119000", "211145.122000", "211145.124000", "211145.127000", "211145.130000", "211145.132000", "211145.135000", "211209.047000", "211209.059000", "211209.062000", "211209.064000", "211209.067000", "211209.070000", "211209.073000", "211209.076000", "211209.079000", "211209.083000"],
      "InstanceNumber": [1, 2, 3, 4, 5, 6, 7, 8, 9, 10, 11, 12, 13, 14, 15, 16, 17, 18, 19, 20, 21, 22, 23, 24, 25, 26, 27, 28, 29, 30, 31, 32, 33, 34, 35, 36, 37, 38, 39, 40, 41, 42, 43, 44, 45, 46, 47, 48, 49, 50, 51, 52, 53, 54, 55, 56, 57, 58, 59, 60, 61, 62, 63, 64, 65, 66, 67, 68, 69, 70, 71, 72, 73, 74, 75, 76, 77, 78, 79, 80, 81, 82, 83, 84, 85, 86, 87, 88, 89, 90, 91, 92, 93, 94, 95, 96, 97, 98, 99, 100, 101, 102, 103, 104, 105, 106, 107, 108, 109, 110, 111, 112, 113, 114, 115, 116, 117, 118, 119, 120, 121, 122, 123, 124, 125, 126, 127, 128, 129, 130, 131, 132],
      "LargestImagePixelValue": [1923, 1688, 1926, 1720, 1664, 1864, 1748, 1757, 1883, 2137, 1835, 1725, 1756, 1755, 1656, 1750, 1650, 1924, 1880, 1659, 1896, 2182, 1639, 1657, 2005, 1679, 1828, 1841, 1737, 1660, 2094, 1721, 1828, 1696, 1865, 1915, 1722, 1751, 1826, 1783, 1737, 1796, 1839, 1889, 1662, 1752, 1750, 2009, 1655, 1739, 1706, 1916, 1905, 1680, 1720, 1760, 1887, 1664, 1767, 1997, 1686, 1759, 1745, 1701, 1685, 1637, 2038, 1809, 1708, 1700, 1913, 1681, 1714, 1757, 1898, 1709, 1821, 1631, 1804, 1682, 1704, 1634, 2005, 1859, 1684, 1780, 1739, 1652, 1814, 2055, 1788, 1725, 1781, 1972, 1643, 1892, 1932, 1814, 1660, 1690, 2099, 1685, 1673, 1882, 1773, 1691, 1772, 1984, 1746, 1711, 1868, 1731, 1669, 1834, 1940, 1773, 1957, 1753, 1807, 1819, 1648, 1752, 1672, 1914, 1744, 1664, 1981, 1672, 1784, 1740, 1751, 1749],
      "WindowCenter": [663.0, 659.0, 661.0, 660.0, 659.0, 661.0, 659.0, 659.0, 661.0, 663.0, 661.0, 660.0, 660.0, 660.0, 660.0, 660.0, 659.0, 660.0, 660.0, 660.0, 661.0, 662.0, 658.0, 658.0, 661.0, 659.0, 660.0, 660.0, 659.0, 658.0, 662.0, 660.0, 660.0, 659.0, 660.0, 661.0, 659.0, 660.0, 660.0, 660.0, 660.0, 660.0, 660.0, 660.0, 660.0, 660.0, 660.0, 661.0, 659.0, 659.0, 659.0, 660.0, 660.0, 659.0, 660.0, 660.0, 661.0, 660.0, 660.0, 661.0, 659.0, 660.0, 660.0, 659.0, 659.0, 659.0, 662.0, 660.0, 659.0, 659.0, 660.0, 658.0, 658.0, 659.0, 661.0, 659.0, 659.0, 659.0, 660.0, 659.0, 659.0, 659.0, 661.0, 660.0, 659.0, 661.0, 661.0, 660.0, 661.0, 662.0, 660.0, 660.0, 661.0, 661.0, 659.0, 662.0, 661.0, 660.0, 659.0, 661.0, 662.0, 659.0, 659.0, 661.0, 660.0, 659.0, 660.0, 661.0, 660.0, 660.0, 661.0, 661.0, 660.0, 661.0, 661.0, 660.0, 661.0, 660.0, 660.0, 660.0, 659.0, 661.0, 660.0, 660.0, 660.0, 660.0, 661.0, 659.0, 661.0, 660.0, 660.0, 659.0],
      "WindowWidth": [1418.0, 1409.0, 1413.0, 1410.0, 1408.0, 1412.0, 1409.0, 1409.0, 1412.0, 1416.0, 1413.0, 1411.0, 1411.0, 1410.0, 1410.0, 1411.0, 1408.0, 1411.0, 1411.0, 1410.0, 1413.0, 1414.0, 1407.0, 1407.0, 1412.0, 1408.0, 1410.0, 1410.0, 1408.0, 1407.0, 1414.0, 1410.0, 1410.0, 1408.0, 1411.0, 1412.0, 1409.0, 1410.0, 1411.0, 1411.0, 1411.0, 1411.0, 1411.0, 1411.0, 1409.0, 1410.0, 1409.0, 1413.0, 1409.0, 1409.0, 1408.0, 1411.0, 1410.0, 1408.0, 1409.0, 1410.0, 1412.0, 1410.0, 1411.0, 1413.0, 1409.0, 1409.0, 1409.0, 1408.0, 1409.0, 1408.0, 1415.0, 1410.0, 1407.0, 1408.0, 1411.0, 1407.0, 1407.0, 1407.0, 1412.0, 1408.0, 1409.0, 1407.0, 1411.0, 1408.0, 1409.0, 1408.0, 1413.0, 1411.0, 1409.0, 1412.0, 1412.0, 1410.0, 1413.0, 1415.0, 1411.0, 1412.0, 1413.0, 1413.0, 1408.0, 1416.0, 1413.0, 1410.0, 1408.0, 1413.0, 1416.0, 1408.0, 1409.0, 1413.0, 1409.0, 1408.0, 1411.0, 1414.0, 1410.0, 1411.0, 1414.0, 1412.0, 1409.0, 1412.0, 1412.0, 1410.0, 1413.0, 1409.0, 1410.0, 1411.0, 1408.0, 1412.0, 1410.0, 1411.0, 1411.0, 1410.0, 1412.0, 1409.0, 1412.0, 1411.0, 1411.0, 1408.0]
    },
    "slices": {}
  }
}