{
  "AcquisitionMatrixPE": 72,
  "AcquisitionNumber": 1,
  "AcquisitionTime": "21:29:48.677500",
  "BandwidthPerPixelPhaseEncode": 24.366,
  "BaseResolution": 72,
  "BodyPartExamined": "BRAIN",
  "CoilCombinationMethod": "Sum of Squares",
  "ConsistencyInfo": "N4_VE11C_LATEST_20160120",
  "ConversionSoftware": "dcm2niix",
  "ConversionSoftwareVersion": "v1.0.20220720",
  "DerivedVendorReportedEchoSpacing": 0.000570011,
  "DeviceSerialNumber": "45219",
  "DwellTime": 3.5e-06,
  "EchoTime": 0.03,
  "EchoTrainLength": 72,
  "EffectiveEchoSpacing": 0.000570011,
  "FlipAngle": 80,
  "HeudiconvVersion": "1.1.6",
  "ImageComments": "Reference volume for motion correction.",
  "ImageOrientationPatientDICOM": [1, 0, 0, 0, 0.971961, 0.235142],
  "ImageOrientationText": "Tra>Cor(13.6)",
  "ImageType": [
    "ORIGINAL",
    "PRIMARY",
    "M",
    "ND",
    "NORM",
    "MOCO",
    "MOSAIC"
],
  "ImagingFrequency": 123.182,
  "InPlanePhaseEncodingDirectionDICOM": "COL",
  "InstitutionAddress": "First Avenue 660,New York,NYC,US,10016",
  "InstitutionName": "NYU LANGONE CBI",
  "InstitutionalDepartmentName": "Department",
  "MRAcquisitionType": "2D",
  "MagneticFieldStrength": 3,
  "Manufacturer": "Siemens",
  "ManufacturersModelName": "Skyra",
  "MatrixCoilMode": "SENSE",
  "Modality": "MR",
  "NonlinearGradientCorrection": false,
  "PartialFourier": 1,
  "PatientPosition": "HFS",
  "PercentPhaseFOV": 100,
  "PercentSampling": 100,
  "PhaseEncodingDirection": "j-",
  "PhaseEncodingSteps": 72,
  "PhaseResolution": 1,
  "PixelBandwidth": 1985,
  "ProcedureStepDescription": "MRI BRAIN WITHOUT IV CONTRAST",
  "ProtocolName": "REST_2_MoCo",
  "PulseSequenceDetails": "%SiemensSeq%\\ep2d_bold",
  "ReceiveCoilActiveElements": "HE1-4",
  "ReceiveCoilName": "HeadNeck_20",
  "ReconMatrixPE": 72,
  "RepetitionTime": 2.5,
  "SAR": 0.114711,
  "ScanOptions": "FS",
  "ScanningSequence": "EP",
  "SequenceName": "*epfid2d1_72",
  "SequenceVariant": "SK",
  "SeriesDescription": "MoCoSeries",
  "SeriesNumber": 13,
  "ShimSetting": [-898, -7009, 5024, 191, -369, 511, 505, -135],
  "SliceThickness": 3,
  "SliceTiming": [1.2375, 0, 1.305, 0.065, 1.37, 0.13, 1.435, 0.195, 1.5, 0.26, 1.565, 0.325, 1.63, 0.39, 1.695, 0.455, 1.76, 0.52, 1.825, 0.585, 1.8925, 0.6525, 1.9575, 0.7175, 2.0225, 0.7825, 2.0875, 0.8475, 2.1525, 0.9125, 2.2175, 0.9775, 2.2825, 1.0425, 2.3475, 1.1075, 2.4125, 1.1725],
  "SoftwareVersions": "syngo MR E11",
  "SpacingBetweenSlices": 3,
  "StationName": "MRC45219",
  "TaskName": "rest",
  "TotalReadoutTime": 0.0404708,
  "TxRefAmp": 397.218,
  "dcmmeta_affine": [
    [-3.0, 0.0, 0.0, 109.06024169921875],
    [0.0, 2.9158830642700195, 0.7054262757301331, -112.19680786132812],
    [0.0, -0.7054263353347778, 2.9158830642700195, -12.951119422912598],
    [0.0, 0.0, 0.0, 1.0]
],
  "dcmmeta_reorient_transform": [
    [0.0, -1.0, 0.0, 71.0],
    [1.0, 0.0, 0.0, 0.0],
    [0.0, 0.0, 1.0, 0.0],
    [0.0, 0.0, 0.0, 1.0]
],
  "dcmmeta_shape": [72, 72, 38, 122],
  "dcmmeta_slice_dim": 2,
  "dcmmeta_version": 0.6,
  "global": {
    "const": {
      "AccessionNumber": "REMOVED",
      "AcquisitionMatrix": [72, 0, 0, 72],
      "AngioFlag": "N",
      "BitsAllocated": 16,
      "BitsStored": 12,
      "BodyPartExamined": "BRAIN",
      "Columns": 504,
      "CountryOfResidence": "REMOVED",
      "DeidentificationMethod": "anonymize.default",
      "DeidentificationMethodCodeSequence": [
        {
          "CodeMeaning": "Basic Anonymization",
          "CodeValue": "113199",
          "CodingSchemeDesignator": "2012CDX"
        }
],
      "EchoNumbers": 1,
      "EchoTime": 30.0,
      "EchoTrainLength": 72,
      "FlipAngle": 80.0,
      "HighBit": 11,
      "ImageOrientationPatient": [1.0, 0.0, 0.0, 0.0, 0.97196100271939, 0.23514210425341],
      "ImagePositionPatient": [-757.06024098396, -724.66161839766, -215.40847161758],
      "ImageType": [
        "ORIGINAL",
        "PRIMARY",
        "M",
        "ND",
        "NORM",
        "MOCO",
        "MOSAIC"
],
      "ImagedNucleus": "1H",
      "ImagingFrequency": 123.18204,
      "InPlanePhaseEncodingDirection": "COL",
      "MRAcquisitionType": "2D",
      "MagneticFieldStrength": 3.0,
      "Manufacturer": "SIEMENS",
      "ManufacturerModelName": "Skyra",
      "Modality": "MR",
      "NumberOfAverages": 1.0,
      "NumberOfPhaseEncodingSteps": 72,
      "PercentPhaseFieldOfView": 100.0,
      "PercentSampling": 100.0,
      "PerformedProcedureStepStartTime": "210142.423000",
      "PhotometricInterpretation": "MONOCHROME2",
      "PixelBandwidth": 1985.0,
      "PixelRepresentation": 0,
      "PixelSpacing": [3.0, 3.0],
      "PregnancyStatus": 0,
      "ProcedureCodeSequence": [
        {
          "CodeMeaning": "MRI BRAIN WITHOUT IV CONTRAST",
          "CodeValue": "IMG269",
          "CodingSchemeDesignator": "L"
        }
],
      "ProtocolName": "REST_2",
      "RepetitionTime": 2500.0,
      "RequestAttributesSequence": [
        {
          "RequestedProcedureID": "293873041",
          "ScheduledProcedureStepDescription": "MRI BRAIN WITHOUT IV CONTRAST",
          "ScheduledProcedureStepID": "E8943926",
          "ScheduledProtocolCodeSequence": [
            {
              "CodeMeaning": "MRI BRAIN WITHOUT IV CONTRAST",
              "CodeValue": "651061",
              "CodingSchemeDesignator": "L"
            }
]
        }
],
      "RequestedProcedureCodeSequence": [
        {
          "CodeMeaning": "MRI BRAIN WITHOUT IV CONTRAST",
          "CodeValue": "IMG269",
          "CodingSchemeDesignator": "L"
        }
],
      "Rows": 504,
      "SAR": 0.11471099939893,
      "SamplesPerPixel": 1,
      "ScanOptions": "FS",
      "ScanningSequence": "EP",
      "SequenceName": "*epfid2d1_72",
      "SequenceVariant": "SK",
      "SeriesDescription": "MoCoSeries",
      "SeriesNumber": 13,
      "SeriesTime": "213046.271000",
      "SliceLocation": -38.970176245968,
      "SliceThickness": 3.0,
      "SmallestImagePixelValue": 0,
      "SmokingStatus": "REMOVED",
      "SoftwareVersions": "syngo MR E11",
      "SpacingBetweenSlices": 2.9999999368582,
      "SpecificCharacterSet": "ISO_IR 100",
      "StudyID": "REMOVED",
      "StudyTime": "210142.268000",
      "TransmitCoilName": "Body",
      "VariableFlipAngleFlag": "N",
      "WindowCenterWidthExplanation": "Algo1",
      "dBdt": 0.0},
    "slices": {}
  },
  "time": {
    "samples": {
      "AcquisitionNumber": [1, 2, 3, 4, 5, 6, 7, 8, 9, 10, 11, 12, 13, 14, 15, 16, 17, 18, 19, 20, 21, 22, 23, 24, 25, 26, 27, 28, 29, 30, 31, 32, 33, 34, 35, 36, 37, 38, 39, 40, 41, 42, 43, 44, 45, 46, 47, 48, 49, 50, 51, 52, 53, 54, 55, 56, 57, 58, 59, 60, 61, 62, 63, 64, 65, 66, 67, 68, 69, 70, 71, 72, 73, 74, 75, 76, 77, 78, 79, 80, 81, 82, 83, 84, 85, 86, 87, 88, 89, 90, 91, 92, 93, 94, 95, 96, 97, 98, 99, 100, 101, 102, 103, 104, 105, 106, 107, 108, 109, 110, 111, 112, 113, 114, 115, 116, 117, 118, 119, 120, 121, 122],
      "AcquisitionTime": ["212948.677500", "212951.177500", "212953.677500", "212956.177500", "212958.677500", "213001.177500", "213003.677500", "213006.177500", "213008.677500", "213011.177500", "213013.677500", "213016.177500", "213018.677500", "213021.177500", "213023.677500", "213026.177500", "213028.677500", "213031.177500", "213033.677500", "213036.177500", "213038.677500", "213041.177500", "213043.677500", "213046.177500", "213048.677500", "213051.177500", "213053.677500", "213056.177500", "213058.677500", "213101.177500", "213103.677500", "213106.177500", "213108.677500", "213111.177500", "213113.677500", "213116.177500", "213118.677500", "213121.177500", "213123.677500", "213126.177500", "213128.677500", "213131.177500", "213133.677500", "213136.177500", "213138.677500", "213141.177500", "213143.677500", "213146.177500", "213148.677500", "213151.177500", "213153.677500", "213156.177500", "213158.677500", "213201.177500", "213203.677500", "213206.177500", "213208.677500", "213211.177500", "213213.677500", "213216.177500", "213218.677500", "213221.177500", "213223.677500", "213226.177500", "213228.677500", "213231.177500", "213233.677500", "213236.177500", "213238.677500", "213241.177500", "213243.677500", "213246.177500", "213248.677500", "213251.177500", "213253.677500", "213256.177500", "213258.677500", "213301.177500", "213303.677500", "213306.177500", "213308.677500", "213311.177500", "213313.677500", "213316.177500", "213318.677500", "213321.177500", "213323.677500", "213326.177500", "213328.677500", "213331.177500", "213333.677500", "213336.177500", "213338.677500", "213341.177500", "213343.677500", "213346.177500", "213348.677500", "213351.177500", "213353.677500", "213356.177500", "213358.677500", "213401.177500", "213403.677500", "213406.177500", "213408.677500", "213411.177500", "213413.677500", "213416.177500", "213418.677500", "213421.177500", "213423.677500", "213426.177500", "213428.677500", "213431.177500", "213433.677500", "213436.177500", "213438.677500", "213441.177500", "213443.677500", "213446.177500", "213448.677500", "213451.177500"],
      "ContentTime": ["213046.274000", "213046.277000", "213046.279000", "213046.282000", "213046.285000", "213046.288000", "213046.291000", "213046.300000", "213046.303000", "213046.306000", "213046.308000", "213046.311000", "213046.314000", "213046.317000", "213046.319000", "213046.322000", "213046.325000", "213046.328000", "213046.330000", "213046.333000", "213046.336000", "213046.339000", "213046.342000", "213146.276000", "213146.279000", "213146.282000", "213146.285000", "213146.288000", "213146.290000", "213146.293000", "213146.299000", "213146.302000", "213146.305000", "213146.307000", "213146.310000", "213146.313000", "213146.316000", "213146.318000", "213146.321000", "213146.324000", "213146.327000", "213146.329000", "213146.332000", "213146.335000", "213146.338000", "213146.340000", "213146.343000", "213226.264000", "213226.266000", "213226.269000", "213226.272000", "213226.275000", "213226.278000", "213226.280000", "213226.290000", "213226.292000", "213226.295000", "213226.298000", "213226.301000", "213226.303000", "213226.306000", "213226.309000", "213226.312000", "213326.269000", "213326.272000", "213326.275000", "213326.278000", "213326.281000", "213326.284000", "213326.293000", "213326.296000", "213326.299000", "213326.302000", "213326.304000", "213326.307000", "213326.310000", "213326.313000", "213326.316000", "213326.318000", "213326.321000", "213326.324000", "213326.327000", "213326.329000", "213326.332000", "213326.335000", "213326.338000", "213326.341000", "213426.273000", "213426.276000", "213426.279000", "213426.282000", "213426.285000", "213426.287000", "213426.290000", "213426.293000", "213426.296000", "213426.298000", "213426.301000", "213426.304000", "213426.307000", "213426.309000", "213426.312000", "213426.315000", "213426.318000", "213426.321000", "213426.324000", "213426.327000", "213426.329000", "213426.332000", "213426.335000", "213426.338000", "213453.079000", "213453.083000", "213453.087000", "213453.090000", "213453.099000", "213453.102000", "213453.105000", "213453.108000", "213453.111000", "213453.114000", "213453.116000"],
      "InstanceCreationTime": ["213046.274000", "213046.277000", "213046.279000", "213046.282000", "213046.285000", "213046.288000", "213046.291000", "213046.300000", "213046.303000", "213046.306000", "213046.308000", "213046.311000", "213046.314000", "213046.317000", "213046.319000", "213046.322000", "213046.325000", "213046.328000", "213046.330000", "213046.333000", "213046.336000", "213046.339000", "213046.342000", "213146.276000", "213146.279000", "213146.282000", "213146.285000", "213146.288000", "213146.290000", "213146.293000", "213146.299000", "213146.302000", "213146.305000", "213146.307000", "213146.310000", "213146.313000", "213146.316000", "213146.318000", "213146.321000", "213146.324000", "213146.327000", "213146.329000", "213146.332000", "213146.335000", "213146.338000", "213146.340000", "213146.343000", "213226.264000", "213226.266000", "213226.269000", "213226.272000", "213226.275000", "213226.278000", "213226.280000", "213226.290000", "213226.292000", "213226.295000", "213226.298000", "213226.301000", "213226.303000", "213226.306000", "213226.309000", "213226.312000", "213326.269000", "213326.272000", "213326.275000", "213326.278000", "213326.281000", "213326.284000", "213326.293000", "213326.296000", "213326.299000", "213326.302000", "213326.304000", "213326.307000", "213326.310000", "213326.313000", "213326.316000", "213326.318000", "213326.321000", "213326.324000", "213326.327000", "213326.329000", "213326.332000", "213326.335000", "213326.338000", "213326.341000", "213426.273000", "213426.276000", "213426.279000", "213426.282000", "213426.285000", "213426.287000", "213426.290000", "213426.293000", "213426.296000", "213426.298000", "213426.301000", "213426.304000", "213426.307000", "213426.309000", "213426.312000", "213426.315000", "213426.318000", "213426.321000", "213426.324000", "213426.327000", "213426.329000", "213426.332000", "213426.335000", "213426.338000", "213453.079000", "213453.083000", "213453.087000", "213453.090000", "213453.099000", "213453.102000", "213453.105000", "213453.108000", "213453.111000", "213453.114000", "213453.116000"],
      "InstanceNumber": [1, 2, 3, 4, 5, 6, 7, 8, 9, 10, 11, 12, 13, 14, 15, 16, 17, 18, 19, 20, 21, 22, 23, 24, 25, 26, 27, 28, 29, 30, 31, 32, 33, 34, 35, 36, 37, 38, 39, 40, 41, 42, 43, 44, 45, 46, 47, 48, 49, 50, 51, 52, 53, 54, 55, 56, 57, 58, 59, 60, 61, 62, 63, 64, 65, 66, 67, 68, 69, 70, 71, 72, 73, 74, 75, 76, 77, 78, 79, 80, 81, 82, 83, 84, 85, 86, 87, 88, 89, 90, 91, 92, 93, 94, 95, 96, 97, 98, 99, 100, 101, 102, 103, 104, 105, 106, 107, 108, 109, 110, 111, 112, 113, 114, 115, 116, 117, 118, 119, 120, 121, 122],
      "LargestImagePixelValue": [2331, 2665, 1966, 1672, 2501, 2219, 2410, 1902, 1760, 2585, 2096, 1824, 2303, 1893, 1971, 2182, 1882, 2069, 2534, 2080, 1648, 1815, 2349, 2726, 2053, 1834, 2186, 2330, 1898, 1864, 2446, 1989, 1749, 1788, 2526, 1966, 1764, 2528, 1951, 1880, 2465, 2008, 1683, 1839, 2169, 2553, 1982, 1685, 1959, 2413, 2151, 2361, 1991, 1924, 2546, 2141, 1777, 1779, 2509, 2272, 1925, 1660, 2275, 2361, 1770, 2177, 2041, 1679, 2360, 2101, 1760, 2381, 1988, 1788, 2317, 1987, 1901, 2024, 2243, 1852, 1687, 2162, 2235, 2098, 1892, 2060, 1754, 2068, 2302, 2060, 2224, 2032, 1800, 2234, 2154, 2073, 2398, 1822, 1690, 2286, 2154, 2083, 1936, 2227, 1846, 1689, 2201, 2347, 1928, 1988, 1865, 2333, 1975, 2073, 2427, 1935, 1720, 2121, 2196, 1840, 1906, 2268],
      "WindowCenter": [666.0, 665.0, 662.0, 660.0, 664.0, 663.0, 663.0, 661.0, 660.0, 664.0, 662.0, 660.0, 663.0, 661.0, 661.0, 663.0, 661.0, 663.0, 664.0, 662.0, 660.0, 661.0, 664.0, 664.0, 662.0, 661.0, 663.0, 663.0, 661.0, 661.0, 664.0, 662.0, 660.0, 661.0, 664.0, 662.0, 661.0, 664.0, 661.0, 662.0, 664.0, 662.0, 660.0, 661.0, 664.0, 665.0, 661.0, 660.0, 662.0, 663.0, 662.0, 663.0, 662.0, 662.0, 663.0, 662.0, 660.0, 660.0, 664.0, 663.0, 661.0, 660.0, 663.0, 664.0, 660.0, 662.0, 662.0, 659.0, 663.0, 662.0, 660.0, 664.0, 662.0, 660.0, 663.0, 662.0, 662.0, 663.0, 663.0, 661.0, 660.0, 663.0, 663.0, 662.0, 662.0, 663.0, 661.0, 662.0, 664.0, 663.0, 663.0, 663.0, 661.0, 663.0, 663.0, 663.0, 663.0, 660.0, 660.0, 663.0, 663.0, 663.0, 661.0, 663.0, 661.0, 660.0, 663.0, 664.0, 662.0, 663.0, 661.0, 663.0, 662.0, 663.0, 664.0, 661.0, 660.0, 662.0, 663.0, 661.0, 661.0, 663.0],
      "WindowWidth": [1426.0, 1422.0, 1414.0, 1411.0, 1420.0, 1417.0, 1417.0, 1413.0, 1411.0, 1418.0, 1414.0, 1411.0, 1417.0, 1412.0, 1413.0, 1416.0, 1414.0, 1416.0, 1420.0, 1416.0, 1411.0, 1414.0, 1419.0, 1419.0, 1414.0, 1413.0, 1416.0, 1416.0, 1413.0, 1414.0, 1418.0, 1414.0, 1411.0, 1413.0, 1419.0, 1415.0, 1413.0, 1418.0, 1413.0, 1414.0, 1419.0, 1414.0, 1411.0, 1414.0, 1419.0, 1421.0, 1413.0, 1409.0, 1415.0, 1418.0, 1415.0, 1417.0, 1416.0, 1414.0, 1418.0, 1414.0, 1410.0, 1411.0, 1419.0, 1416.0, 1413.0, 1410.0, 1418.0, 1419.0, 1412.0, 1415.0, 1415.0, 1409.0, 1418.0, 1415.0, 1412.0, 1418.0, 1414.0, 1411.0, 1416.0, 1414.0, 1415.0, 1416.0, 1417.0, 1412.0, 1411.0, 1417.0, 1417.0, 1415.0, 1415.0, 1418.0, 1413.0, 1416.0, 1419.0, 1417.0, 1417.0, 1417.0, 1413.0, 1417.0, 1418.0, 1416.0, 1417.0, 1411.0, 1410.0, 1417.0, 1418.0, 1416.0, 1413.0, 1416.0, 1413.0, 1410.0, 1417.0, 1418.0, 1415.0, 1417.0, 1414.0, 1418.0, 1415.0, 1417.0, 1418.0, 1413.0, 1411.0, 1415.0, 1417.0, 1412.0, 1412.0, 1418.0]
    },
    "slices": {}
  }
}