{
  "AcquisitionMatrixPE": 72,
  "AcquisitionNumber": 1,
  "AcquisitionTime": "21:24:13.320000",
  "BandwidthPerPixelPhaseEncode": 24.366,
  "BaseResolution": 72,
  "BodyPartExamined": "BRAIN",
  "CoilCombinationMethod": "Sum of Squares",
  "ConsistencyInfo": "N4_VE11C_LATEST_20160120",
  "ConversionSoftware": "dcm2niix",
  "ConversionSoftwareVersion": "v1.0.20220720",
  "DerivedVendorReportedEchoSpacing": 0.000570011,
  "DeviceSerialNumber": "45219",
  "DwellTime": 3.5e-06,
  "EchoTime": 0.03,
  "EchoTrainLength": 72,
  "EffectiveEchoSpacing": 0.000570011,
  "FlipAngle": 80,
  "HeudiconvVersion": "1.1.6",
  "ImageComments": "Reference volume for motion correction.",
  "ImageOrientationPatientDICOM": [1, 0, 0, 0, 0.971961, 0.235142],
  "ImageOrientationText": "Tra>Cor(13.6)",
  "ImageType": [
    "ORIGINAL",
    "PRIMARY",
    "M",
    "ND",
    "NORM",
    "MOCO",
    "MOSAIC"
],
  "ImagingFrequency": 123.182,
  "InPlanePhaseEncodingDirectionDICOM": "COL",
  "InstitutionAddress": "First Avenue 660,New York,NYC,US,10016",
  "InstitutionName": "NYU LANGONE CBI",
  "InstitutionalDepartmentName": "Department",
  "MRAcquisitionType": "2D",
  "MagneticFieldStrength": 3,
  "Manufacturer": "Siemens",
  "ManufacturersModelName": "Skyra",
  "MatrixCoilMode": "SENSE",
  "Modality": "MR",
  "NonlinearGradientCorrection": false,
  "PartialFourier": 1,
  "PatientPosition": "HFS",
  "PercentPhaseFOV": 100,
  "PercentSampling": 100,
  "PhaseEncodingDirection": "j-",
  "PhaseEncodingSteps": 72,
  "PhaseResolution": 1,
  "PixelBandwidth": 1985,
  "ProcedureStepDescription": "MRI BRAIN WITHOUT IV CONTRAST",
  "ProtocolName": "REST_1_MoCo",
  "PulseSequenceDetails": "%SiemensSeq%\\ep2d_bold",
  "ReceiveCoilActiveElements": "HE1-4",
  "ReceiveCoilName": "HeadNeck_20",
  "ReconMatrixPE": 72,
  "RepetitionTime": 2.5,
  "SAR": 0.114711,
  "ScanOptions": "FS",
  "ScanningSequence": "EP",
  "SequenceName": "*epfid2d1_72",
  "SequenceVariant": "SK",
  "SeriesDescription": "MoCoSeries",
  "SeriesNumber": 11,
  "ShimSetting": [-898, -7009, 5024, 191, -369, 511, 505, -135],
  "SliceThickness": 3,
  "SliceTiming": [1.24, 0, 1.305, 0.065, 1.3725, 0.1325, 1.4375, 0.1975, 1.5025, 0.2625, 1.5675, 0.3275, 1.6325, 0.3925, 1.6975, 0.4575, 1.7625, 0.5225, 1.8275, 0.5875, 1.8925, 0.6525, 1.9575, 0.7175, 2.025, 0.785, 2.09, 0.85, 2.155, 0.915, 2.22, 0.98, 2.285, 1.045, 2.35, 1.11, 2.415, 1.175],
  "SoftwareVersions": "syngo MR E11",
  "SpacingBetweenSlices": 3,
  "StationName": "MRC45219",
  "TaskName": "rest",
  "TotalReadoutTime": 0.0404708,
  "TxRefAmp": 397.218,
  "dcmmeta_affine": [
    [-3.0, 0.0, 0.0, 109.06024169921875],
    [0.0, 2.9158830642700195, 0.7054262757301331, -112.19680786132812],
    [0.0, -0.7054263353347778, 2.9158830642700195, -12.951119422912598],
    [0.0, 0.0, 0.0, 1.0]
],
  "dcmmeta_reorient_transform": [
    [0.0, -1.0, 0.0, 71.0],
    [1.0, 0.0, 0.0, 0.0],
    [0.0, 0.0, 1.0, 0.0],
    [0.0, 0.0, 0.0, 1.0]
],
  "dcmmeta_shape": [72, 72, 38, 122],
  "dcmmeta_slice_dim": 2,
  "dcmmeta_version": 0.6,
  "global": {
    "const": {
      "AccessionNumber": "REMOVED",
      "AcquisitionMatrix": [72, 0, 0, 72],
      "AngioFlag": "N",
      "BitsAllocated": 16,
      "BitsStored": 12,
      "BodyPartExamined": "BRAIN",
      "Columns": 504,
      "CountryOfResidence": "REMOVED",
      "DeidentificationMethod": "anonymize.default",
      "DeidentificationMethodCodeSequence": [
        {
          "CodeMeaning": "Basic Anonymization",
          "CodeValue": "113199",
          "CodingSchemeDesignator": "2012CDX"
        }
],
      "EchoNumbers": 1,
      "EchoTime": 30.0,
      "EchoTrainLength": 72,
      "FlipAngle": 80.0,
      "HighBit": 11,
      "ImageOrientationPatient": [1.0, 0.0, 0.0, 0.0, 0.97196100271939, 0.23514210425341],
      "ImagePositionPatient": [-757.06024098396, -724.66161839766, -215.40847161758],
      "ImageType": [
        "ORIGINAL",
        "PRIMARY",
        "M",
        "ND",
        "NORM",
        "MOCO",
        "MOSAIC"
],
      "ImagedNucleus": "1H",
      "ImagingFrequency": 123.18202,
      "InPlanePhaseEncodingDirection": "COL",
      "MRAcquisitionType": "2D",
      "MagneticFieldStrength": 3.0,
      "Manufacturer": "SIEMENS",
      "ManufacturerModelName": "Skyra",
      "Modality": "MR",
      "NumberOfAverages": 1.0,
      "NumberOfPhaseEncodingSteps": 72,
      "PercentPhaseFieldOfView": 100.0,
      "PercentSampling": 100.0,
      "PerformedProcedureStepStartTime": "210142.423000",
      "PhotometricInterpretation": "MONOCHROME2",
      "PixelBandwidth": 1985.0,
      "PixelRepresentation": 0,
      "PixelSpacing": [3.0, 3.0],
      "PregnancyStatus": 0,
      "ProcedureCodeSequence": [
        {
          "CodeMeaning": "MRI BRAIN WITHOUT IV CONTRAST",
          "CodeValue": "IMG269",
          "CodingSchemeDesignator": "L"
        }
],
      "ProtocolName": "REST_1",
      "RepetitionTime": 2500.0,
      "RequestAttributesSequence": [
        {
          "RequestedProcedureID": "293873041",
          "ScheduledProcedureStepDescription": "MRI BRAIN WITHOUT IV CONTRAST",
          "ScheduledProcedureStepID": "E8943926",
          "ScheduledProtocolCodeSequence": [
            {
              "CodeMeaning": "MRI BRAIN WITHOUT IV CONTRAST",
              "CodeValue": "651061",
              "CodingSchemeDesignator": "L"
            }
]
        }
],
      "RequestedProcedureCodeSequence": [
        {
          "CodeMeaning": "MRI BRAIN WITHOUT IV CONTRAST",
          "CodeValue": "IMG269",
          "CodingSchemeDesignator": "L"
        }
],
      "Rows": 504,
      "SAR": 0.11471099939893,
      "SamplesPerPixel": 1,
      "ScanOptions": "FS",
      "ScanningSequence": "EP",
      "SequenceName": "*epfid2d1_72",
      "SequenceVariant": "SK",
      "SeriesDescription": "MoCoSeries",
      "SeriesNumber": 11,
      "SeriesTime": "212505.168000",
      "SliceLocation": -38.970176245968,
      "SliceThickness": 3.0,
      "SmallestImagePixelValue": 0,
      "SmokingStatus": "REMOVED",
      "SoftwareVersions": "syngo MR E11",
      "SpacingBetweenSlices": 2.9999999368582,
      "SpecificCharacterSet": "ISO_IR 100",
      "StudyID": "REMOVED",
      "StudyTime": "210142.268000",
      "TransmitCoilName": "Body",
      "VariableFlipAngleFlag": "N",
      "WindowCenterWidthExplanation": "Algo1",
      "dBdt": 0.0},
    "slices": {}
  },
  "time": {
    "samples": {
      "AcquisitionNumber": [1, 2, 3, 4, 5, 6, 7, 8, 9, 10, 11, 12, 13, 14, 15, 16, 17, 18, 19, 20, 21, 22, 23, 24, 25, 26, 27, 28, 29, 30, 31, 32, 33, 34, 35, 36, 37, 38, 39, 40, 41, 42, 43, 44, 45, 46, 47, 48, 49, 50, 51, 52, 53, 54, 55, 56, 57, 58, 59, 60, 61, 62, 63, 64, 65, 66, 67, 68, 69, 70, 71, 72, 73, 74, 75, 76, 77, 78, 79, 80, 81, 82, 83, 84, 85, 86, 87, 88, 89, 90, 91, 92, 93, 94, 95, 96, 97, 98, 99, 100, 101, 102, 103, 104, 105, 106, 107, 108, 109, 110, 111, 112, 113, 114, 115, 116, 117, 118, 119, 120, 121, 122],
      "AcquisitionTime": ["212413.320000", "212415.820000", "212418.320000", "212420.820000", "212423.320000", "212425.820000", "212428.320000", "212430.820000", "212433.320000", "212435.820000", "212438.320000", "212440.820000", "212443.320000", "212445.820000", "212448.320000", "212450.820000", "212453.320000", "212455.820000", "212458.320000", "212500.820000", "212503.320000", "212505.820000", "212508.320000", "212510.820000", "212513.320000", "212515.820000", "212518.320000", "212520.820000", "212523.320000", "212525.820000", "212528.320000", "212530.820000", "212533.320000", "212535.820000", "212538.320000", "212540.820000", "212543.320000", "212545.820000", "212548.320000", "212550.820000", "212553.320000", "212555.820000", "212558.320000", "212600.820000", "212603.320000", "212605.820000", "212608.320000", "212610.820000", "212613.320000", "212615.820000", "212618.320000", "212620.820000", "212623.320000", "212625.820000", "212628.320000", "212630.820000", "212633.320000", "212635.820000", "212638.320000", "212640.820000", "212643.320000", "212645.820000", "212648.320000", "212650.820000", "212653.320000", "212655.820000", "212658.320000", "212700.820000", "212703.320000", "212705.820000", "212708.320000", "212710.820000", "212713.320000", "212715.820000", "212718.320000", "212720.820000", "212723.320000", "212725.820000", "212728.320000", "212730.820000", "212733.320000", "212735.820000", "212738.320000", "212740.820000", "212743.320000", "212745.820000", "212748.320000", "212750.820000", "212753.320000", "212755.820000", "212758.320000", "212800.820000", "212803.320000", "212805.820000", "212808.320000", "212810.820000", "212813.320000", "212815.820000", "212818.320000", "212820.820000", "212823.320000", "212825.820000", "212828.320000", "212830.820000", "212833.320000", "212835.820000", "212838.320000", "212840.820000", "212843.320000", "212845.820000", "212848.320000", "212850.820000", "212853.320000", "212855.820000", "212858.320000", "212900.820000", "212903.320000", "212905.820000", "212908.320000", "212910.820000", "212913.320000", "212915.820000"],
      "ContentTime": ["212505.171000", "212505.174000", "212505.177000", "212505.180000", "212505.182000", "212505.185000", "212505.188000", "212505.191000", "212505.193000", "212505.196000", "212505.199000", "212505.202000", "212505.205000", "212505.207000", "212505.210000", "212505.213000", "212505.215000", "212505.218000", "212505.221000", "212505.224000", "212505.226000", "212605.167000", "212605.170000", "212605.173000", "212605.176000", "212605.179000", "212605.181000", "212605.184000", "212605.187000", "212605.190000", "212605.192000", "212605.195000", "212605.198000", "212605.201000", "212605.203000", "212605.206000", "212605.209000", "212605.212000", "212605.214000", "212605.217000", "212605.220000", "212605.223000", "212605.225000", "212605.228000", "212605.231000", "212705.178000", "212705.181000", "212705.184000", "212705.187000", "212705.190000", "212705.192000", "212705.195000", "212705.198000", "212705.200000", "212705.203000", "212705.206000", "212705.209000", "212705.212000", "212705.214000", "212705.217000", "212705.220000", "212705.222000", "212705.225000", "212705.228000", "212705.231000", "212705.233000", "212705.236000", "212705.239000", "212705.242000", "212805.171000", "212805.174000", "212805.177000", "212805.179000", "212805.182000", "212805.185000", "212805.188000", "212805.190000", "212805.193000", "212805.196000", "212805.198000", "212805.201000", "212805.204000", "212805.207000", "212805.209000", "212805.212000", "212805.215000", "212805.217000", "212805.220000", "212805.223000", "212805.232000", "212805.235000", "212805.238000", "212805.240000", "212905.165000", "212905.168000", "212905.171000", "212905.174000", "212905.176000", "212905.179000", "212905.182000", "212905.185000", "212905.187000", "212905.190000", "212905.193000", "212905.196000", "212905.198000", "212905.201000", "212905.204000", "212905.207000", "212905.209000", "212905.212000", "212905.215000", "212905.217000", "212905.220000", "212905.223000", "212905.226000", "212905.229000", "212917.425000", "212917.430000", "212917.432000", "212917.435000", "212917.439000"],
      "InstanceCreationTime": ["212505.171000", "212505.174000", "212505.177000", "212505.180000", "212505.182000", "212505.185000", "212505.188000", "212505.191000", "212505.193000", "212505.196000", "212505.199000", "212505.202000", "212505.205000", "212505.207000", "212505.210000", "212505.213000", "212505.215000", "212505.218000", "212505.221000", "212505.224000", "212505.226000", "212605.167000", "212605.170000", "212605.173000", "212605.176000", "212605.179000", "212605.181000", "212605.184000", "212605.187000", "212605.190000", "212605.192000", "212605.195000", "212605.198000", "212605.201000", "212605.203000", "212605.206000", "212605.209000", "212605.212000", "212605.214000", "212605.217000", "212605.220000", "212605.223000", "212605.225000", "212605.228000", "212605.231000", "212705.178000", "212705.181000", "212705.184000", "212705.187000", "212705.190000", "212705.192000", "212705.195000", "212705.198000", "212705.200000", "212705.203000", "212705.206000", "212705.209000", "212705.212000", "212705.214000", "212705.217000", "212705.220000", "212705.222000", "212705.225000", "212705.228000", "212705.231000", "212705.233000", "212705.236000", "212705.239000", "212705.242000", "212805.171000", "212805.174000", "212805.177000", "212805.179000", "212805.182000", "212805.185000", "212805.188000", "212805.190000", "212805.193000", "212805.196000", "212805.198000", "212805.201000", "212805.204000", "212805.207000", "212805.209000", "212805.212000", "212805.215000", "212805.217000", "212805.220000", "212805.223000", "212805.232000", "212805.235000", "212805.238000", "212805.240000", "212905.165000", "212905.168000", "212905.171000", "212905.174000", "212905.176000", "212905.179000", "212905.182000", "212905.185000", "212905.187000", "212905.190000", "212905.193000", "212905.196000", "212905.198000", "212905.201000", "212905.204000", "212905.207000", "212905.209000", "212905.212000", "212905.215000", "212905.217000", "212905.220000", "212905.223000", "212905.226000", "212905.229000", "212917.425000", "212917.430000", "212917.432000", "212917.435000", "212917.439000"],
      "InstanceNumber": [1, 2, 3, 4, 5, 6, 7, 8, 9, 10, 11, 12, 13, 14, 15, 16, 17, 18, 19, 20, 21, 22, 23, 24, 25, 26, 27, 28, 29, 30, 31, 32, 33, 34, 35, 36, 37, 38, 39, 40, 41, 42, 43, 44, 45, 46, 47, 48, 49, 50, 51, 52, 53, 54, 55, 56, 57, 58, 59, 60, 61, 62, 63, 64, 65, 66, 67, 68, 69, 70, 71, 72, 73, 74, 75, 76, 77, 78, 79, 80, 81, 82, 83, 84, 85, 86, 87, 88, 89, 90, 91, 92, 93, 94, 95, 96, 97, 98, 99, 100, 101, 102, 103, 104, 105, 106, 107, 108, 109, 110, 111, 112, 113, 114, 115, 116, 117, 118, 119, 120, 121, 122],
      "LargestImagePixelValue": [2592, 1925, 2424, 1741, 2423, 2199, 1990, 2116, 1704, 2334, 2022, 1764, 2341, 1781, 1970, 1841, 2311, 1733, 2429, 1857, 2376, 1864, 2147, 1737, 2183, 1962, 2003, 1688, 2079, 1934, 2386, 1912, 1802, 2402, 2070, 1748, 1684, 2486, 1831, 2394, 1851, 2157, 2200, 1694, 2127, 1760, 2378, 2092, 1833, 2263, 1769, 1716, 2082, 1832, 2173, 2068, 1691, 1968, 1699, 1709, 2272, 1971, 2430, 2031, 1737, 2242, 2311, 1863, 1719, 2393, 2121, 1737, 2156, 2127, 1864, 2132, 1916, 2036, 2461, 1978, 1821, 1953, 2540, 2028, 1763, 2338, 2142, 1807, 1701, 2271, 2258, 2073, 1903, 2366, 2189, 1820, 1745, 2482, 2175, 1877, 2061, 2338, 1790, 1783, 2337, 1943, 2054, 2295, 2178, 1801, 1773, 2503, 1832, 1690, 2070, 2138, 1783, 1782, 1943, 2538, 1810, 1704],
      "WindowCenter": [666.0, 662.0, 663.0, 660.0, 663.0, 662.0, 661.0, 662.0, 660.0, 663.0, 662.0, 660.0, 663.0, 660.0, 662.0, 662.0, 664.0, 661.0, 663.0, 661.0, 662.0, 661.0, 662.0, 660.0, 663.0, 662.0, 661.0, 660.0, 664.0, 663.0, 664.0, 662.0, 661.0, 664.0, 662.0, 661.0, 660.0, 664.0, 661.0, 663.0, 662.0, 663.0, 662.0, 659.0, 662.0, 660.0, 663.0, 662.0, 660.0, 663.0, 660.0, 659.0, 663.0, 661.0, 663.0, 662.0, 660.0, 662.0, 661.0, 661.0, 665.0, 663.0, 664.0, 662.0, 661.0, 663.0, 663.0, 661.0, 660.0, 664.0, 662.0, 660.0, 662.0, 663.0, 661.0, 663.0, 662.0, 663.0, 664.0, 662.0, 661.0, 661.0, 663.0, 661.0, 660.0, 663.0, 662.0, 661.0, 660.0, 664.0, 663.0, 662.0, 661.0, 663.0, 662.0, 660.0, 660.0, 663.0, 662.0, 662.0, 662.0, 663.0, 660.0, 660.0, 663.0, 662.0, 663.0, 663.0, 663.0, 661.0, 661.0, 664.0, 660.0, 660.0, 662.0, 663.0, 662.0, 662.0, 663.0, 665.0, 661.0, 661.0],
      "WindowWidth": [1426.0, 1414.0, 1416.0, 1409.0, 1417.0, 1414.0, 1412.0, 1414.0, 1410.0, 1417.0, 1414.0, 1410.0, 1416.0, 1410.0, 1416.0, 1416.0, 1419.0, 1412.0, 1417.0, 1411.0, 1415.0, 1412.0, 1415.0, 1411.0, 1418.0, 1415.0, 1413.0, 1411.0, 1421.0, 1418.0, 1419.0, 1415.0, 1413.0, 1419.0, 1416.0, 1412.0, 1412.0, 1420.0, 1412.0, 1417.0, 1415.0, 1416.0, 1415.0, 1409.0, 1415.0, 1410.0, 1417.0, 1414.0, 1411.0, 1416.0, 1410.0, 1409.0, 1416.0, 1414.0, 1416.0, 1415.0, 1410.0, 1415.0, 1412.0, 1414.0, 1421.0, 1417.0, 1420.0, 1414.0, 1412.0, 1417.0, 1416.0, 1412.0, 1410.0, 1418.0, 1414.0, 1410.0, 1416.0, 1417.0, 1412.0, 1416.0, 1414.0, 1416.0, 1420.0, 1414.0, 1412.0, 1412.0, 1418.0, 1413.0, 1411.0, 1417.0, 1414.0, 1412.0, 1411.0, 1418.0, 1418.0, 1415.0, 1413.0, 1417.0, 1415.0, 1411.0, 1411.0, 1418.0, 1416.0, 1414.0, 1416.0, 1417.0, 1411.0, 1410.0, 1417.0, 1416.0, 1417.0, 1418.0, 1416.0, 1412.0, 1412.0, 1419.0, 1411.0, 1410.0, 1414.0, 1416.0, 1415.0, 1416.0, 1417.0, 1422.0, 1413.0, 1412.0]
    },
    "slices": {}
  }
}