{
  "AcquisitionMatrixPE": 72,
  "AcquisitionNumber": 1,
  "AcquisitionTime": "16:54:53.660000",
  "BandwidthPerPixelPhaseEncode": 24.366,
  "BaseResolution": 72,
  "BodyPartExamined": "BRAIN",
  "CoilCombinationMethod": "Sum of Squares",
  "ConsistencyInfo": "N4_VE11C_LATEST_20160120",
  "ConversionSoftware": "dcm2niix",
  "ConversionSoftwareVersion": "v1.0.20220720",
  "DerivedVendorReportedEchoSpacing": 0.000570011,
  "DeviceSerialNumber": "45219",
  "DwellTime": 3.5e-06,
  "EchoTime": 0.03,
  "EchoTrainLength": 72,
  "EffectiveEchoSpacing": 0.000570011,
  "FlipAngle": 80,
  "HeudiconvVersion": "1.1.6",
  "ImageComments": "Reference volume for motion correction.",
  "ImageOrientationPatientDICOM": [1, 0, 0, 0, 0.986572, 0.163326],
  "ImageOrientationText": "Tra>Cor(9.4)",
  "ImageType": [
    "ORIGINAL",
    "PRIMARY",
    "M",
    "ND",
    "NORM",
    "MOCO",
    "MOSAIC"
],
  "ImagingFrequency": 123.182,
  "InPlanePhaseEncodingDirectionDICOM": "COL",
  "InstitutionAddress": "First Avenue 660,New York,NYC,US,10016",
  "InstitutionName": "NYU LANGONE CBI",
  "InstitutionalDepartmentName": "Department",
  "MRAcquisitionType": "2D",
  "MagneticFieldStrength": 3,
  "Manufacturer": "Siemens",
  "ManufacturersModelName": "Skyra",
  "MatrixCoilMode": "SENSE",
  "Modality": "MR",
  "NonlinearGradientCorrection": false,
  "PartialFourier": 1,
  "PatientPosition": "HFS",
  "PercentPhaseFOV": 100,
  "PercentSampling": 100,
  "PhaseEncodingDirection": "j-",
  "PhaseEncodingSteps": 72,
  "PhaseResolution": 1,
  "PixelBandwidth": 1985,
  "ProcedureStepDescription": "MRI BRAIN WITHOUT IV CONTRAST",
  "ProtocolName": "REST_1_MoCo",
  "PulseSequenceDetails": "%SiemensSeq%\\ep2d_bold",
  "ReceiveCoilActiveElements": "HE1-4",
  "ReceiveCoilName": "HeadNeck_20",
  "ReconMatrixPE": 72,
  "RepetitionTime": 2.5,
  "SAR": 0.143719,
  "ScanOptions": "FS",
  "ScanningSequence": "EP",
  "SequenceName": "*epfid2d1_72",
  "SequenceVariant": "SK",
  "SeriesDescription": "MoCoSeries",
  "SeriesNumber": 9,
  "ShimSetting": [-903, -7047, 5131, 480, -240, 169, 431, -188],
  "SliceThickness": 3,
  "SliceTiming": [1.24, 0, 1.305, 0.065, 1.37, 0.1325, 1.4375, 0.1975, 1.5025, 0.2625, 1.5675, 0.3275, 1.6325, 0.3925, 1.6975, 0.4575, 1.7625, 0.5225, 1.8275, 0.5875, 1.8925, 0.6525, 1.9575, 0.7175, 2.025, 0.785, 2.09, 0.85, 2.155, 0.915, 2.22, 0.98, 2.285, 1.045, 2.35, 1.11, 2.415, 1.175],
  "SoftwareVersions": "syngo MR E11",
  "SpacingBetweenSlices": 3,
  "StationName": "MRC45219",
  "TaskName": "rest",
  "TotalReadoutTime": 0.0404708,
  "TxRefAmp": 421.773,
  "dcmmeta_affine": [
    [-3.0, 0.0, 0.0, 108.0],
    [0.0, 2.959716558456421, 0.4899778664112091, -114.2078628540039],
    [0.0, -0.4899778664112091, 2.959716320037842, -10.376914024353027],
    [0.0, 0.0, 0.0, 1.0]
],
  "dcmmeta_reorient_transform": [
    [0.0, -1.0, 0.0, 71.0],
    [1.0, 0.0, 0.0, 0.0],
    [0.0, 0.0, 1.0, 0.0],
    [0.0, 0.0, 0.0, 1.0]
],
  "dcmmeta_shape": [72, 72, 38, 122],
  "dcmmeta_slice_dim": 2,
  "dcmmeta_version": 0.6,
  "global": {
    "const": {
      "AcquisitionMatrix": [72, 0, 0, 72],
      "AngioFlag": "N",
      "BitsAllocated": 16,
      "BitsStored": 12,
      "BodyPartExamined": "BRAIN",
      "Columns": 504,
      "CountryOfResidence": "United States of America [1]",
      "EchoNumbers": 1,
      "EchoTime": 30.0,
      "EchoTrainLength": 72,
      "FlipAngle": 80.0,
      "HighBit": 11,
      "ImageOrientationPatient": [1.0, 0.0, 0.0, 0.0, 0.98657216211243, 0.16332595918836],
      "ImagePositionPatient": [-756.0, -735.2307652885, -151.00056535941],
      "ImageType": [
        "ORIGINAL",
        "PRIMARY",
        "M",
        "ND",
        "NORM",
        "MOCO",
        "MOSAIC"
],
      "ImagedNucleus": "1H",
      "ImagingFrequency": 123.18184,
      "InPlanePhaseEncodingDirection": "COL",
      "MRAcquisitionType": "2D",
      "MagneticFieldStrength": 3.0,
      "Manufacturer": "SIEMENS",
      "ManufacturerModelName": "Skyra",
      "Modality": "MR",
      "NumberOfAverages": 1.0,
      "NumberOfPhaseEncodingSteps": 72,
      "PercentPhaseFieldOfView": 100.0,
      "PercentSampling": 100.0,
      "PerformedProcedureStepStartTime": "164247.712000",
      "PhotometricInterpretation": "MONOCHROME2",
      "PixelBandwidth": 1985.0,
      "PixelRepresentation": 0,
      "PixelSpacing": [3.0, 3.0],
      "PregnancyStatus": 4,
      "ProcedureCodeSequence": [
        {
          "CodeMeaning": "MRI BRAIN WITHOUT IV CONTRAST",
          "CodeValue": "IMG269",
          "CodingSchemeDesignator": "L"
        }
],
      "ProtocolName": "REST_1",
      "RepetitionTime": 2500.0,
      "RequestAttributesSequence": [
        {
          "RequestedProcedureID": "305297745",
          "ScheduledProcedureStepDescription": "MRI BRAIN WITHOUT IV CONTRAST",
          "ScheduledProcedureStepID": "E9130836",
          "ScheduledProtocolCodeSequence": [
            {
              "CodeMeaning": "MRI BRAIN WITHOUT IV CONTRAST",
              "CodeValue": "651061",
              "CodingSchemeDesignator": "L"
            }
]
        }
],
      "RequestedProcedureCodeSequence": [
        {
          "CodeMeaning": "MRI BRAIN WITHOUT IV CONTRAST",
          "CodeValue": "IMG269",
          "CodingSchemeDesignator": "L"
        }
],
      "Rows": 504,
      "SAR": 0.1437192982116,
      "SamplesPerPixel": 1,
      "ScanOptions": "FS",
      "ScanningSequence": "EP",
      "SequenceName": "*epfid2d1_72",
      "SequenceVariant": "SK",
      "SeriesDescription": "MoCoSeries",
      "SeriesNumber": 9,
      "SeriesTime": "165511.750000",
      "SliceLocation": -28.890684281299,
      "SliceThickness": 3.0,
      "SmallestImagePixelValue": 0,
      "SmokingStatus": "UNKNOWN",
      "SoftwareVersions": "syngo MR E11",
      "SpacingBetweenSlices": 2.9999999520938,
      "SpecificCharacterSet": "ISO_IR 100",
      "StudyTime": "164247.560000",
      "TransmitCoilName": "Body",
      "VariableFlipAngleFlag": "N",
      "WindowCenterWidthExplanation": "Algo1",
      "dBdt": 0.0},
    "slices": {}
  },
  "time": {
    "samples": {
      "AcquisitionNumber": [1, 2, 3, 4, 5, 6, 7, 8, 9, 10, 11, 12, 13, 14, 15, 16, 17, 18, 19, 20, 21, 22, 23, 24, 25, 26, 27, 28, 29, 30, 31, 32, 33, 34, 35, 36, 37, 38, 39, 40, 41, 42, 43, 44, 45, 46, 47, 48, 49, 50, 51, 52, 53, 54, 55, 56, 57, 58, 59, 60, 61, 62, 63, 64, 65, 66, 67, 68, 69, 70, 71, 72, 73, 74, 75, 76, 77, 78, 79, 80, 81, 82, 83, 84, 85, 86, 87, 88, 89, 90, 91, 92, 93, 94, 95, 96, 97, 98, 99, 100, 101, 102, 103, 104, 105, 106, 107, 108, 109, 110, 111, 112, 113, 114, 115, 116, 117, 118, 119, 120, 121, 122],
      "AcquisitionTime": ["165453.660000", "165456.160000", "165458.660000", "165501.160000", "165503.660000", "165506.160000", "165508.660000", "165511.160000", "165513.660000", "165516.160000", "165518.660000", "165521.160000", "165523.660000", "165526.160000", "165528.660000", "165531.160000", "165533.660000", "165536.160000", "165538.660000", "165541.160000", "165543.660000", "165546.160000", "165548.660000", "165551.160000", "165553.660000", "165556.160000", "165558.660000", "165601.160000", "165603.660000", "165606.160000", "165608.660000", "165611.160000", "165613.660000", "165616.160000", "165618.660000", "165621.160000", "165623.660000", "165626.160000", "165628.660000", "165631.160000", "165633.660000", "165636.160000", "165638.660000", "165641.160000", "165643.660000", "165646.160000", "165648.660000", "165651.160000", "165653.660000", "165656.160000", "165658.660000", "165701.160000", "165703.660000", "165706.160000", "165708.660000", "165711.160000", "165713.660000", "165716.160000", "165718.660000", "165721.160000", "165723.660000", "165726.160000", "165728.660000", "165731.160000", "165733.660000", "165736.160000", "165738.660000", "165741.160000", "165743.660000", "165746.160000", "165748.660000", "165751.160000", "165753.660000", "165756.160000", "165758.660000", "165801.160000", "165803.660000", "165806.160000", "165808.660000", "165811.160000", "165813.660000", "165816.160000", "165818.660000", "165821.160000", "165823.660000", "165826.160000", "165828.660000", "165831.160000", "165833.660000", "165836.160000", "165838.660000", "165841.160000", "165843.660000", "165846.160000", "165848.660000", "165851.160000", "165853.660000", "165856.160000", "165858.660000", "165901.160000", "165903.660000", "165906.160000", "165908.660000", "165911.160000", "165913.660000", "165916.160000", "165918.660000", "165921.160000", "165923.660000", "165926.160000", "165928.660000", "165931.160000", "165933.660000", "165936.160000", "165938.660000", "165941.160000", "165943.660000", "165946.160000", "165948.660000", "165951.160000", "165953.660000", "165956.160000"],
      "ContentTime": ["165511.752000", "165511.759000", "165511.762000", "165511.764000", "165511.767000", "165511.770000", "165511.773000", "165611.789000", "165611.792000", "165611.795000", "165611.798000", "165611.800000", "165611.803000", "165611.806000", "165611.809000", "165611.811000", "165611.814000", "165611.817000", "165611.828000", "165611.830000", "165611.833000", "165611.836000", "165611.839000", "165611.842000", "165611.844000", "165611.852000", "165611.854000", "165611.863000", "165611.865000", "165611.868000", "165611.871000", "165711.794000", "165711.797000", "165711.800000", "165711.803000", "165711.806000", "165711.808000", "165711.811000", "165711.814000", "165711.816000", "165711.819000", "165711.822000", "165711.825000", "165711.827000", "165711.830000", "165711.833000", "165711.836000", "165711.838000", "165711.841000", "165711.844000", "165711.847000", "165711.849000", "165711.852000", "165711.855000", "165711.867000", "165811.799000", "165811.801000", "165811.804000", "165811.807000", "165811.810000", "165811.812000", "165811.815000", "165811.818000", "165811.821000", "165811.823000", "165811.826000", "165811.829000", "165811.832000", "165811.834000", "165811.837000", "165811.840000", "165811.843000", "165811.845000", "165811.848000", "165811.851000", "165811.854000", "165811.856000", "165811.859000", "165811.862000", "165911.803000", "165911.806000", "165911.809000", "165911.812000", "165911.814000", "165911.817000", "165911.820000", "165911.822000", "165911.825000", "165911.828000", "165911.831000", "165911.833000", "165911.836000", "165911.839000", "165911.842000", "165911.844000", "165911.847000", "165911.850000", "165911.852000", "165911.855000", "165911.858000", "165911.860000", "165911.863000", "165911.866000", "165958.317000", "165958.320000", "165958.323000", "165958.326000", "165958.329000", "165958.331000", "165958.334000", "165958.337000", "165958.339000", "165958.342000", "165958.345000", "165958.348000", "165958.351000", "165958.354000", "165958.356000", "165958.359000", "165958.362000", "165958.365000", "165958.368000"],
      "InstanceCreationTime": ["165511.752000", "165511.759000", "165511.762000", "165511.764000", "165511.767000", "165511.770000", "165511.773000", "165611.789000", "165611.792000", "165611.795000", "165611.798000", "165611.800000", "165611.803000", "165611.806000", "165611.809000", "165611.811000", "165611.814000", "165611.817000", "165611.828000", "165611.830000", "165611.833000", "165611.836000", "165611.839000", "165611.842000", "165611.844000", "165611.852000", "165611.854000", "165611.863000", "165611.865000", "165611.868000", "165611.871000", "165711.794000", "165711.797000", "165711.800000", "165711.803000", "165711.806000", "165711.808000", "165711.811000", "165711.814000", "165711.816000", "165711.819000", "165711.822000", "165711.825000", "165711.827000", "165711.830000", "165711.833000", "165711.836000", "165711.838000", "165711.841000", "165711.844000", "165711.847000", "165711.849000", "165711.852000", "165711.855000", "165711.867000", "165811.799000", "165811.801000", "165811.804000", "165811.807000", "165811.810000", "165811.812000", "165811.815000", "165811.818000", "165811.821000", "165811.823000", "165811.826000", "165811.829000", "165811.832000", "165811.834000", "165811.837000", "165811.840000", "165811.843000", "165811.845000", "165811.848000", "165811.851000", "165811.854000", "165811.856000", "165811.859000", "165811.862000", "165911.803000", "165911.806000", "165911.809000", "165911.812000", "165911.814000", "165911.817000", "165911.820000", "165911.822000", "165911.825000", "165911.828000", "165911.831000", "165911.833000", "165911.836000", "165911.839000", "165911.842000", "165911.844000", "165911.847000", "165911.850000", "165911.852000", "165911.855000", "165911.858000", "165911.860000", "165911.863000", "165911.866000", "165958.317000", "165958.320000", "165958.323000", "165958.326000", "165958.329000", "165958.331000", "165958.334000", "165958.337000", "165958.339000", "165958.342000", "165958.345000", "165958.348000", "165958.351000", "165958.354000", "165958.356000", "165958.359000", "165958.362000", "165958.365000", "165958.368000"],
      "InstanceNumber": [1, 2, 3, 4, 5, 6, 7, 8, 9, 10, 11, 12, 13, 14, 15, 16, 17, 18, 19, 20, 21, 22, 23, 24, 25, 26, 27, 28, 29, 30, 31, 32, 33, 34, 35, 36, 37, 38, 39, 40, 41, 42, 43, 44, 45, 46, 47, 48, 49, 50, 51, 52, 53, 54, 55, 56, 57, 58, 59, 60, 61, 62, 63, 64, 65, 66, 67, 68, 69, 70, 71, 72, 73, 74, 75, 76, 77, 78, 79, 80, 81, 82, 83, 84, 85, 86, 87, 88, 89, 90, 91, 92, 93, 94, 95, 96, 97, 98, 99, 100, 101, 102, 103, 104, 105, 106, 107, 108, 109, 110, 111, 112, 113, 114, 115, 116, 117, 118, 119, 120, 121, 122],
      "LargestImagePixelValue": [2111, 2057, 2113, 2040, 1865, 2044, 1940, 2201, 1913, 1882, 1954, 2102, 1932, 2164, 2061, 2036, 1935, 1921, 1968, 1838, 1873, 1898, 1935, 1917, 1810, 1979, 2050, 2170, 1903, 1977, 1874, 1915, 2011, 2035, 2085, 1911, 2043, 2367, 1841, 1797, 2066, 2134, 2005, 2065, 2100, 2035, 1958, 2024, 1948, 1809, 1822, 1833, 2307, 2213, 2123, 2341, 1944, 2078, 1812, 1807, 1828, 1948, 2207, 2182, 2158, 2125, 1817, 1920, 2064, 2364, 1861, 1868, 2129, 2144, 1826, 1873, 1951, 2021, 2140, 1874, 1856, 1856, 1836, 1938, 2323, 2051, 2243, 1835, 2022, 1907, 1862, 2220, 2030, 2161, 1938, 1954, 1847, 2143, 1898, 2129, 1885, 2089, 2162, 2065, 1887, 1835, 2025, 2508, 1939, 1899, 2030, 2286, 2153, 2302, 2224, 2236, 2148, 2020, 2247, 2285, 2080, 2177],
      "WindowCenter": [676.0, 674.0, 673.0, 671.0, 671.0, 671.0, 670.0, 671.0, 671.0, 673.0, 673.0, 673.0, 672.0, 673.0, 672.0, 671.0, 671.0, 673.0, 673.0, 671.0, 674.0, 674.0, 674.0, 671.0, 672.0, 672.0, 672.0, 672.0, 671.0, 671.0, 671.0, 673.0, 673.0, 673.0, 673.0, 672.0, 673.0, 673.0, 671.0, 672.0, 673.0, 672.0, 672.0, 672.0, 672.0, 672.0, 671.0, 672.0, 672.0, 672.0, 673.0, 673.0, 675.0, 673.0, 671.0, 672.0, 670.0, 671.0, 671.0, 672.0, 673.0, 673.0, 674.0, 673.0, 673.0, 672.0, 670.0, 673.0, 673.0, 673.0, 670.0, 671.0, 672.0, 672.0, 669.0, 671.0, 672.0, 672.0, 672.0, 671.0, 670.0, 672.0, 671.0, 672.0, 673.0, 671.0, 672.0, 671.0, 672.0, 672.0, 672.0, 674.0, 673.0, 672.0, 669.0, 670.0, 670.0, 672.0, 670.0, 672.0, 671.0, 672.0, 673.0, 671.0, 672.0, 673.0, 674.0, 674.0, 672.0, 674.0, 675.0, 675.0, 674.0, 674.0, 673.0, 673.0, 673.0, 672.0, 673.0, 673.0, 672.0, 673.0],
      "WindowWidth": [1433.0, 1428.0, 1426.0, 1421.0, 1421.0, 1422.0, 1419.0, 1421.0, 1422.0, 1426.0, 1425.0, 1427.0, 1424.0, 1425.0, 1424.0, 1422.0, 1423.0, 1427.0, 1426.0, 1422.0, 1428.0, 1429.0, 1428.0, 1422.0, 1423.0, 1425.0, 1424.0, 1424.0, 1422.0, 1422.0, 1422.0, 1426.0, 1427.0, 1425.0, 1426.0, 1424.0, 1425.0, 1426.0, 1421.0, 1423.0, 1425.0, 1425.0, 1423.0, 1424.0, 1424.0, 1424.0, 1423.0, 1424.0, 1424.0, 1424.0, 1426.0, 1427.0, 1430.0, 1426.0, 1422.0, 1423.0, 1419.0, 1422.0, 1422.0, 1424.0, 1425.0, 1426.0, 1428.0, 1426.0, 1426.0, 1425.0, 1418.0, 1425.0, 1425.0, 1425.0, 1420.0, 1422.0, 1425.0, 1423.0, 1417.0, 1423.0, 1424.0, 1423.0, 1424.0, 1423.0, 1418.0, 1424.0, 1421.0, 1424.0, 1426.0, 1422.0, 1425.0, 1422.0, 1424.0, 1424.0, 1424.0, 1429.0, 1427.0, 1424.0, 1417.0, 1420.0, 1420.0, 1423.0, 1420.0, 1424.0, 1421.0, 1424.0, 1425.0, 1422.0, 1423.0, 1426.0, 1427.0, 1428.0, 1423.0, 1429.0, 1430.0, 1430.0, 1427.0, 1427.0, 1426.0, 1425.0, 1425.0, 1424.0, 1426.0, 1426.0, 1424.0, 1425.0]
    },
    "slices": {}
  }
}