{
  "AcquisitionMatrixPE": 72,
  "AcquisitionNumber": 1,
  "AcquisitionTime": "17:07:4.337500",
  "BandwidthPerPixelPhaseEncode": 24.366,
  "BaseResolution": 72,
  "BodyPartExamined": "BRAIN",
  "CoilCombinationMethod": "Sum of Squares",
  "ConsistencyInfo": "N4_VE11C_LATEST_20160120",
  "ConversionSoftware": "dcm2niix",
  "ConversionSoftwareVersion": "v1.0.20220720",
  "DerivedVendorReportedEchoSpacing": 0.000570011,
  "DeviceSerialNumber": "45219",
  "DwellTime": 3.5e-06,
  "EchoTime": 0.03,
  "EchoTrainLength": 72,
  "EffectiveEchoSpacing": 0.000570011,
  "FlipAngle": 80,
  "HeudiconvVersion": "1.1.6",
  "ImageComments": "Reference volume for motion correction.",
  "ImageOrientationPatientDICOM": [1, 0, 0, 0, 0.986572, 0.163326],
  "ImageOrientationText": "Tra>Cor(9.4)",
  "ImageType": [
    "ORIGINAL",
    "PRIMARY",
    "M",
    "ND",
    "NORM",
    "MOCO",
    "MOSAIC"
],
  "ImagingFrequency": 123.182,
  "InPlanePhaseEncodingDirectionDICOM": "COL",
  "InstitutionAddress": "First Avenue 660,New York,NYC,US,10016",
  "InstitutionName": "NYU LANGONE CBI",
  "InstitutionalDepartmentName": "Department",
  "MRAcquisitionType": "2D",
  "MagneticFieldStrength": 3,
  "Manufacturer": "Siemens",
  "ManufacturersModelName": "Skyra",
  "MatrixCoilMode": "SENSE",
  "Modality": "MR",
  "NonlinearGradientCorrection": false,
  "PartialFourier": 1,
  "PatientPosition": "HFS",
  "PercentPhaseFOV": 100,
  "PercentSampling": 100,
  "PhaseEncodingDirection": "j-",
  "PhaseEncodingSteps": 72,
  "PhaseResolution": 1,
  "PixelBandwidth": 1985,
  "ProcedureStepDescription": "MRI BRAIN WITHOUT IV CONTRAST",
  "ProtocolName": "TASK_CD_MoCo",
  "PulseSequenceDetails": "%SiemensSeq%\\ep2d_bold",
  "ReceiveCoilActiveElements": "HE1-4",
  "ReceiveCoilName": "HeadNeck_20",
  "ReconMatrixPE": 72,
  "RepetitionTime": 2.5,
  "SAR": 0.143771,
  "ScanOptions": "FS",
  "ScanningSequence": "EP",
  "SequenceName": "*epfid2d1_72",
  "SequenceVariant": "SK",
  "SeriesDescription": "MoCoSeries",
  "SeriesNumber": 13,
  "ShimSetting": [-903, -7047, 5131, 480, -240, 169, 431, -188],
  "SliceThickness": 3,
  "SliceTiming": [1.24, 0, 1.305, 0.065, 1.37, 0.13, 1.435, 0.195, 1.5, 0.26, 1.565, 0.325, 1.6325, 0.3925, 1.6975, 0.4575, 1.7625, 0.5225, 1.8275, 0.5875, 1.8925, 0.6525, 1.9575, 0.7175, 2.0225, 0.7825, 2.0875, 0.8475, 2.1525, 0.9125, 2.2175, 0.98, 2.285, 1.045, 2.35, 1.11, 2.415, 1.175],
  "SoftwareVersions": "syngo MR E11",
  "SpacingBetweenSlices": 3,
  "StationName": "MRC45219",
  "TaskName": "cd",
  "TotalReadoutTime": 0.0404708,
  "TxRefAmp": 421.773,
  "dcmmeta_affine": [
    [-3.0, 0.0, 0.0, 108.0],
    [0.0, 2.959716558456421, 0.4899778664112091, -114.2078628540039],
    [0.0, -0.4899778664112091, 2.959716320037842, -10.376914024353027],
    [0.0, 0.0, 0.0, 1.0]
],
  "dcmmeta_reorient_transform": [
    [0.0, -1.0, 0.0, 71.0],
    [1.0, 0.0, 0.0, 0.0],
    [0.0, 0.0, 1.0, 0.0],
    [0.0, 0.0, 0.0, 1.0]
],
  "dcmmeta_shape": [72, 72, 38, 132],
  "dcmmeta_slice_dim": 2,
  "dcmmeta_version": 0.6,
  "global": {
    "const": {
      "AcquisitionMatrix": [72, 0, 0, 72],
      "AngioFlag": "N",
      "BitsAllocated": 16,
      "BitsStored": 12,
      "BodyPartExamined": "BRAIN",
      "Columns": 504,
      "CountryOfResidence": "United States of America [1]",
      "EchoNumbers": 1,
      "EchoTime": 30.0,
      "EchoTrainLength": 72,
      "FlipAngle": 80.0,
      "HighBit": 11,
      "ImageOrientationPatient": [1.0, 0.0, 0.0, 0.0, 0.98657216211243, 0.16332595918836],
      "ImagePositionPatient": [-756.0, -735.2307652885, -151.00056535941],
      "ImageType": [
        "ORIGINAL",
        "PRIMARY",
        "M",
        "ND",
        "NORM",
        "MOCO",
        "MOSAIC"
],
      "ImagedNucleus": "1H",
      "ImagingFrequency": 123.181909,
      "InPlanePhaseEncodingDirection": "COL",
      "MRAcquisitionType": "2D",
      "MagneticFieldStrength": 3.0,
      "Manufacturer": "SIEMENS",
      "ManufacturerModelName": "Skyra",
      "Modality": "MR",
      "NumberOfAverages": 1.0,
      "NumberOfPhaseEncodingSteps": 72,
      "PercentPhaseFieldOfView": 100.0,
      "PercentSampling": 100.0,
      "PerformedProcedureStepStartTime": "164247.712000",
      "PhotometricInterpretation": "MONOCHROME2",
      "PixelBandwidth": 1985.0,
      "PixelRepresentation": 0,
      "PixelSpacing": [3.0, 3.0],
      "PregnancyStatus": 4,
      "ProcedureCodeSequence": [
        {
          "CodeMeaning": "MRI BRAIN WITHOUT IV CONTRAST",
          "CodeValue": "IMG269",
          "CodingSchemeDesignator": "L"
        }
],
      "ProtocolName": "TASK_CD",
      "RepetitionTime": 2500.0,
      "RequestAttributesSequence": [
        {
          "RequestedProcedureID": "305297745",
          "ScheduledProcedureStepDescription": "MRI BRAIN WITHOUT IV CONTRAST",
          "ScheduledProcedureStepID": "E9130836",
          "ScheduledProtocolCodeSequence": [
            {
              "CodeMeaning": "MRI BRAIN WITHOUT IV CONTRAST",
              "CodeValue": "651061",
              "CodingSchemeDesignator": "L"
            }
]
        }
],
      "RequestedProcedureCodeSequence": [
        {
          "CodeMeaning": "MRI BRAIN WITHOUT IV CONTRAST",
          "CodeValue": "IMG269",
          "CodingSchemeDesignator": "L"
        }
],
      "Rows": 504,
      "SAR": 0.1437709717992,
      "SamplesPerPixel": 1,
      "ScanOptions": "FS",
      "ScanningSequence": "EP",
      "SequenceName": "*epfid2d1_72",
      "SequenceVariant": "SK",
      "SeriesDescription": "MoCoSeries",
      "SeriesNumber": 13,
      "SeriesTime": "170811.816000",
      "SliceLocation": -28.890684281299,
      "SliceThickness": 3.0,
      "SmallestImagePixelValue": 0,
      "SmokingStatus": "UNKNOWN",
      "SoftwareVersions": "syngo MR E11",
      "SpacingBetweenSlices": 2.9999999520938,
      "SpecificCharacterSet": "ISO_IR 100",
      "StudyTime": "164247.560000",
      "TransmitCoilName": "Body",
      "VariableFlipAngleFlag": "N",
      "WindowCenterWidthExplanation": "Algo1",
      "dBdt": 0.0},
    "slices": {}
  },
  "time": {
    "samples": {
      "AcquisitionNumber": [1, 2, 3, 4, 5, 6, 7, 8, 9, 10, 11, 12, 13, 14, 15, 16, 17, 18, 19, 20, 21, 22, 23, 24, 25, 26, 27, 28, 29, 30, 31, 32, 33, 34, 35, 36, 37, 38, 39, 40, 41, 42, 43, 44, 45, 46, 47, 48, 49, 50, 51, 52, 53, 54, 55, 56, 57, 58, 59, 60, 61, 62, 63, 64, 65, 66, 67, 68, 69, 70, 71, 72, 73, 74, 75, 76, 77, 78, 79, 80, 81, 82, 83, 84, 85, 86, 87, 88, 89, 90, 91, 92, 93, 94, 95, 96, 97, 98, 99, 100, 101, 102, 103, 104, 105, 106, 107, 108, 109, 110, 111, 112, 113, 114, 115, 116, 117, 118, 119, 120, 121, 122, 123, 124, 125, 126, 127, 128, 129, 130, 131, 132],
      "AcquisitionTime": ["170704.337500", "170706.837500", "170709.337500", "170711.837500", "170714.337500", "170716.837500", "170719.337500", "170721.837500", "170724.337500", "170726.837500", "170729.337500", "170731.837500", "170734.337500", "170736.837500", "170739.337500", "170741.837500", "170744.337500", "170746.837500", "170749.337500", "170751.837500", "170754.337500", "170756.837500", "170759.337500", "170801.837500", "170804.337500", "170806.837500", "170809.337500", "170811.837500", "170814.337500", "170816.837500", "170819.337500", "170821.837500", "170824.337500", "170826.837500", "170829.337500", "170831.837500", "170834.337500", "170836.837500", "170839.337500", "170841.837500", "170844.337500", "170846.837500", "170849.337500", "170851.837500", "170854.337500", "170856.837500", "170859.337500", "170901.837500", "170904.337500", "170906.837500", "170909.337500", "170911.837500", "170914.337500", "170916.837500", "170919.337500", "170921.837500", "170924.337500", "170926.837500", "170929.337500", "170931.837500", "170934.337500", "170936.837500", "170939.337500", "170941.837500", "170944.337500", "170946.837500", "170949.337500", "170951.837500", "170954.337500", "170956.837500", "170959.337500", "171001.837500", "171004.337500", "171006.837500", "171009.337500", "171011.837500", "171014.337500", "171016.837500", "171019.337500", "171021.837500", "171024.337500", "171026.837500", "171029.337500", "171031.837500", "171034.337500", "171036.837500", "171039.337500", "171041.837500", "171044.337500", "171046.837500", "171049.337500", "171051.837500", "171054.337500", "171056.837500", "171059.337500", "171101.837500", "171104.337500", "171106.837500", "171109.337500", "171111.837500", "171114.337500", "171116.837500", "171119.337500", "171121.837500", "171124.337500", "171126.837500", "171129.337500", "171131.837500", "171134.337500", "171136.837500", "171139.337500", "171141.837500", "171144.337500", "171146.837500", "171149.337500", "171151.837500", "171154.337500", "171156.837500", "171159.337500", "171201.837500", "171204.337500", "171206.837500", "171209.337500", "171211.837500", "171214.337500", "171216.837500", "171219.337500", "171221.837500", "171224.337500", "171226.837500", "171229.337500", "171231.837500"],
      "ContentTime": ["170811.818000", "170811.821000", "170811.824000", "170811.827000", "170811.830000", "170811.832000", "170811.841000", "170811.844000", "170811.847000", "170811.849000", "170811.852000", "170811.855000", "170811.858000", "170811.860000", "170811.863000", "170811.866000", "170811.869000", "170811.871000", "170811.874000", "170811.877000", "170811.880000", "170811.882000", "170811.885000", "170811.888000", "170811.891000", "170811.893000", "170811.896000", "170911.804000", "170911.807000", "170911.810000", "170911.813000", "170911.815000", "170911.818000", "170911.821000", "170911.823000", "170911.826000", "170911.829000", "170911.832000", "170911.834000", "170911.837000", "170911.840000", "170911.842000", "170911.845000", "170911.848000", "170911.851000", "170911.853000", "170911.856000", "170911.859000", "170911.861000", "170911.864000", "170911.867000", "171011.804000", "171011.807000", "171011.810000", "171011.812000", "171011.815000", "171011.818000", "171011.820000", "171011.823000", "171011.826000", "171011.829000", "171011.831000", "171011.834000", "171011.837000", "171011.839000", "171011.842000", "171011.845000", "171011.847000", "171011.850000", "171011.853000", "171011.856000", "171011.858000", "171011.861000", "171011.864000", "171011.867000", "171111.802000", "171111.805000", "171111.808000", "171111.811000", "171111.813000", "171111.816000", "171111.819000", "171111.822000", "171111.824000", "171111.827000", "171111.830000", "171111.833000", "171111.835000", "171111.838000", "171111.841000", "171111.843000", "171111.846000", "171111.849000", "171111.851000", "171111.854000", "171111.857000", "171111.860000", "171111.862000", "171111.865000", "171211.801000", "171211.804000", "171211.806000", "171211.809000", "171211.812000", "171211.815000", "171211.817000", "171211.820000", "171211.823000", "171211.826000", "171211.828000", "171211.831000", "171211.834000", "171211.837000", "171211.840000", "171211.842000", "171211.845000", "171211.848000", "171211.851000", "171211.853000", "171211.856000", "171211.859000", "171211.861000", "171211.864000", "171233.556000", "171233.560000", "171233.564000", "171233.567000", "171233.569000", "171233.572000", "171233.575000", "171233.578000", "171233.581000"],
      "InstanceCreationTime": ["170811.818000", "170811.821000", "170811.824000", "170811.827000", "170811.830000", "170811.832000", "170811.841000", "170811.844000", "170811.847000", "170811.849000", "170811.852000", "170811.855000", "170811.858000", "170811.860000", "170811.863000", "170811.866000", "170811.869000", "170811.871000", "170811.874000", "170811.877000", "170811.880000", "170811.882000", "170811.885000", "170811.888000", "170811.891000", "170811.893000", "170811.896000", "170911.804000", "170911.807000", "170911.810000", "170911.813000", "170911.815000", "170911.818000", "170911.821000", "170911.823000", "170911.826000", "170911.829000", "170911.832000", "170911.834000", "170911.837000", "170911.840000", "170911.842000", "170911.845000", "170911.848000", "170911.851000", "170911.853000", "170911.856000", "170911.859000", "170911.861000", "170911.864000", "170911.867000", "171011.804000", "171011.807000", "171011.810000", "171011.812000", "171011.815000", "171011.818000", "171011.820000", "171011.823000", "171011.826000", "171011.829000", "171011.831000", "171011.834000", "171011.837000", "171011.839000", "171011.842000", "171011.845000", "171011.847000", "171011.850000", "171011.853000", "171011.856000", "171011.858000", "171011.861000", "171011.864000", "171011.867000", "171111.802000", "171111.805000", "171111.808000", "171111.811000", "171111.813000", "171111.816000", "171111.819000", "171111.822000", "171111.824000", "171111.827000", "171111.830000", "171111.833000", "171111.835000", "171111.838000", "171111.841000", "171111.843000", "171111.846000", "171111.849000", "171111.851000", "171111.854000", "171111.857000", "171111.860000", "171111.862000", "171111.865000", "171211.801000", "171211.804000", "171211.806000", "171211.809000", "171211.812000", "171211.815000", "171211.817000", "171211.820000", "171211.823000", "171211.826000", "171211.828000", "171211.831000", "171211.834000", "171211.837000", "171211.840000", "171211.842000", "171211.845000", "171211.848000", "171211.851000", "171211.853000", "171211.856000", "171211.859000", "171211.861000", "171211.864000", "171233.556000", "171233.560000", "171233.564000", "171233.567000", "171233.569000", "171233.572000", "171233.575000", "171233.578000", "171233.581000"],
      "InstanceNumber": [1, 2, 3, 4, 5, 6, 7, 8, 9, 10, 11, 12, 13, 14, 15, 16, 17, 18, 19, 20, 21, 22, 23, 24, 25, 26, 27, 28, 29, 30, 31, 32, 33, 34, 35, 36, 37, 38, 39, 40, 41, 42, 43, 44, 45, 46, 47, 48, 49, 50, 51, 52, 53, 54, 55, 56, 57, 58, 59, 60, 61, 62, 63, 64, 65, 66, 67, 68, 69, 70, 71, 72, 73, 74, 75, 76, 77, 78, 79, 80, 81, 82, 83, 84, 85, 86, 87, 88, 89, 90, 91, 92, 93, 94, 95, 96, 97, 98, 99, 100, 101, 102, 103, 104, 105, 106, 107, 108, 109, 110, 111, 112, 113, 114, 115, 116, 117, 118, 119, 120, 121, 122, 123, 124, 125, 126, 127, 128, 129, 130, 131, 132],
      "LargestImagePixelValue": [2275, 2016, 2392, 2313, 1934, 1887, 1883, 2045, 1901, 2045, 1883, 2074, 2351, 1935, 2163, 2506, 2532, 2319, 1855, 1915, 2749, 1921, 1873, 1862, 2604, 2150, 1982, 2398, 1883, 1874, 1910, 2505, 2178, 2112, 2201, 1854, 1886, 2744, 1984, 2271, 2323, 1866, 1891, 2585, 2498, 2373, 1926, 2033, 1885, 1898, 1876, 1933, 1926, 1902, 1872, 1927, 1879, 1925, 1913, 1844, 2012, 1887, 1904, 1989, 2147, 2479, 2530, 2449, 1921, 1861, 1871, 1875, 1900, 1878, 2286, 1926, 1919, 1872, 2413, 1912, 1878, 2523, 2407, 2573, 2285, 1869, 1880, 1893, 1833, 1887, 1897, 1891, 1893, 1836, 1867, 2172, 2499, 2631, 2468, 2072, 1910, 1859, 1838, 1867, 1853, 1874, 2027, 2104, 2065, 2072, 2167, 1842, 1874, 2428, 1902, 1856, 2195, 2175, 1844, 2549, 2519, 2016, 2559, 2733, 2351, 2404, 1940, 1965, 1892, 1982, 1938, 1928],
      "WindowCenter": [675.0, 670.0, 671.0, 671.0, 671.0, 672.0, 672.0, 673.0, 672.0, 673.0, 672.0, 673.0, 673.0, 673.0, 674.0, 674.0, 673.0, 672.0, 673.0, 673.0, 674.0, 672.0, 673.0, 674.0, 676.0, 673.0, 673.0, 673.0, 673.0, 674.0, 674.0, 676.0, 674.0, 673.0, 673.0, 672.0, 673.0, 676.0, 672.0, 673.0, 672.0, 671.0, 671.0, 673.0, 672.0, 671.0, 669.0, 670.0, 670.0, 671.0, 672.0, 672.0, 672.0, 672.0, 672.0, 673.0, 672.0, 673.0, 674.0, 673.0, 674.0, 673.0, 673.0, 673.0, 673.0, 674.0, 673.0, 672.0, 670.0, 670.0, 671.0, 671.0, 672.0, 672.0, 674.0, 673.0, 674.0, 673.0, 675.0, 673.0, 673.0, 675.0, 674.0, 673.0, 672.0, 671.0, 671.0, 671.0, 670.0, 671.0, 672.0, 673.0, 673.0, 673.0, 674.0, 675.0, 675.0, 674.0, 673.0, 671.0, 671.0, 671.0, 672.0, 672.0, 673.0, 672.0, 673.0, 672.0, 672.0, 672.0, 672.0, 671.0, 671.0, 673.0, 673.0, 672.0, 673.0, 673.0, 675.0, 676.0, 674.0, 671.0, 672.0, 673.0, 671.0, 671.0, 670.0, 671.0, 671.0, 672.0, 673.0, 673.0],
      "WindowWidth": [1433.0, 1423.0, 1424.0, 1422.0, 1424.0, 1427.0, 1427.0, 1428.0, 1427.0, 1430.0, 1427.0, 1429.0, 1429.0, 1428.0, 1431.0, 1430.0, 1428.0, 1427.0, 1428.0, 1429.0, 1431.0, 1426.0, 1430.0, 1430.0, 1434.0, 1429.0, 1427.0, 1429.0, 1430.0, 1430.0, 1430.0, 1434.0, 1430.0, 1429.0, 1429.0, 1427.0, 1429.0, 1435.0, 1427.0, 1429.0, 1426.0, 1423.0, 1423.0, 1428.0, 1425.0, 1423.0, 1418.0, 1421.0, 1422.0, 1425.0, 1426.0, 1427.0, 1427.0, 1427.0, 1426.0, 1428.0, 1427.0, 1428.0, 1431.0, 1428.0, 1431.0, 1429.0, 1428.0, 1428.0, 1429.0, 1430.0, 1428.0, 1426.0, 1423.0, 1423.0, 1424.0, 1425.0, 1426.0, 1427.0, 1430.0, 1429.0, 1432.0, 1430.0, 1434.0, 1429.0, 1429.0, 1433.0, 1430.0, 1429.0, 1427.0, 1423.0, 1423.0, 1423.0, 1423.0, 1424.0, 1427.0, 1429.0, 1430.0, 1430.0, 1431.0, 1433.0, 1433.0, 1431.0, 1428.0, 1424.0, 1423.0, 1423.0, 1426.0, 1427.0, 1428.0, 1427.0, 1427.0, 1427.0, 1426.0, 1426.0, 1426.0, 1423.0, 1424.0, 1427.0, 1428.0, 1427.0, 1429.0, 1429.0, 1432.0, 1434.0, 1429.0, 1423.0, 1426.0, 1427.0, 1423.0, 1423.0, 1422.0, 1424.0, 1423.0, 1425.0, 1428.0, 1428.0]
    },
    "slices": {}
  }
}