{
  "AcquisitionMatrixPE": 72,
  "AcquisitionNumber": 1,
  "AcquisitionTime": "16:11:18.955000",
  "BandwidthPerPixelPhaseEncode": 24.366,
  "BaseResolution": 72,
  "BodyPartExamined": "HEAD",
  "CoilCombinationMethod": "Sum of Squares",
  "ConsistencyInfo": "N4_VE11C_LATEST_20160120",
  "ConversionSoftware": "dcm2niix",
  "ConversionSoftwareVersion": "v1.0.20220720",
  "DerivedVendorReportedEchoSpacing": 0.000570011,
  "DeviceSerialNumber": "45219",
  "DwellTime": 3.5e-06,
  "EchoTime": 0.03,
  "EchoTrainLength": 72,
  "EffectiveEchoSpacing": 0.000570011,
  "FlipAngle": 80,
  "HeudiconvVersion": "1.1.6",
  "ImageOrientationPatientDICOM": [0.995465, -0.0258025, -0.0915608, 0.0139002, 0.991635, -0.128325],
  "ImageOrientationText": "Tra>Cor(-7.3)>Sag(-5.4)",
  "ImageType": [
    "ORIGINAL",
    "PRIMARY",
    "M",
    "ND",
    "NORM",
    "MOSAIC"
],
  "ImagingFrequency": 123.182,
  "InPlanePhaseEncodingDirectionDICOM": "COL",
  "InstitutionAddress": "First Avenue 660,New York,NYC,US,10016",
  "InstitutionName": "NYU LANGONE CBI",
  "InstitutionalDepartmentName": "Department",
  "MRAcquisitionType": "2D",
  "MagneticFieldStrength": 3,
  "Manufacturer": "Siemens",
  "ManufacturersModelName": "Skyra",
  "MatrixCoilMode": "SENSE",
  "Modality": "MR",
  "NonlinearGradientCorrection": false,
  "PartialFourier": 1,
  "PatientPosition": "HFS",
  "PercentPhaseFOV": 100,
  "PercentSampling": 100,
  "PhaseEncodingDirection": "j-",
  "PhaseEncodingSteps": 72,
  "PhaseResolution": 1,
  "PixelBandwidth": 1985,
  "ProcedureStepDescription": "MRI BRAIN WITHOUT IV CONTRAST",
  "ProtocolName": "TASK_CD",
  "PulseSequenceDetails": "%SiemensSeq%\\ep2d_bold",
  "ReceiveCoilActiveElements": "HE1-4",
  "ReceiveCoilName": "HeadNeck_20",
  "ReconMatrixPE": 72,
  "RepetitionTime": 2.5,
  "SAR": 0.103884,
  "ScanOptions": "FS",
  "ScanningSequence": "EP",
  "SequenceName": "*epfid2d1_72",
  "SequenceVariant": "SK",
  "SeriesDescription": "TASK_CD",
  "SeriesNumber": 13,
  "ShimSetting": [-922, -6978, 4997, 264, -205, -397, 476, -107],
  "SliceThickness": 3,
  "SliceTiming": [1.24, 0, 1.305, 0.065, 1.3725, 0.1325, 1.4375, 0.1975, 1.5025, 0.2625, 1.5675, 0.3275, 1.6325, 0.3925, 1.6975, 0.4575, 1.7625, 0.5225, 1.8275, 0.5875, 1.8925, 0.6525, 1.9575, 0.7175, 2.025, 0.785, 2.09, 0.85, 2.155, 0.915, 2.22, 0.98, 2.285, 1.045, 2.35, 1.11, 2.415, 1.175],
  "SoftwareVersions": "syngo MR E11",
  "SpacingBetweenSlices": 3,
  "StationName": "MRC45219",
  "TaskName": "cd",
  "TotalReadoutTime": 0.0404708,
  "TxRefAmp": 424.19,
  "dcmmeta_affine": [
    [-2.9863953590393066, 0.04170067235827446, -0.2823180556297302, 109.15480041503906],
    [0.07740763574838638, 2.9749042987823486, -0.3794099688529968, -108.03404998779297],
    [-0.27468252182006836, 0.3849739134311676, 2.962489604949951, -56.38153839111328],
    [0.0, 0.0, 0.0, 1.0]
],
  "dcmmeta_reorient_transform": [
    [0.0, -1.0, 0.0, 71.0],
    [1.0, 0.0, 0.0, 0.0],
    [0.0, 0.0, 1.0, 0.0],
    [0.0, 0.0, 0.0, 1.0]
],
  "dcmmeta_shape": [72, 72, 38, 132],
  "dcmmeta_slice_dim": 2,
  "dcmmeta_version": 0.6,
  "global": {
    "const": {
      "AcquisitionMatrix": [72, 0, 0, 72],
      "AngioFlag": "N",
      "BitsAllocated": 16,
      "BitsStored": 12,
      "BodyPartExamined": "HEAD",
      "Columns": 504,
      "CountryOfResidence": "United States of America [1]",
      "EchoNumbers": 1,
      "EchoTime": 30.0,
      "EchoTrainLength": 72,
      "FlipAngle": 80.0,
      "HighBit": 11,
      "ImageOrientationPatient": [0.99546513790842, -0.0258025443384, -0.0915608426929, 0.01390022444533, 0.99163479723341, -0.1283246378379],
      "ImagePositionPatient": [-766.18430010009, -729.04346280688, 113.43739895879],
      "ImageType": [
        "ORIGINAL",
        "PRIMARY",
        "M",
        "ND",
        "NORM",
        "MOSAIC"
],
      "ImagedNucleus": "1H",
      "ImagingFrequency": 123.18213,
      "InPlanePhaseEncodingDirection": "COL",
      "MRAcquisitionType": "2D",
      "MagneticFieldStrength": 3.0,
      "Manufacturer": "SIEMENS",
      "ManufacturerModelName": "Skyra",
      "Modality": "MR",
      "NumberOfAverages": 1.0,
      "NumberOfPhaseEncodingSteps": 72,
      "PercentPhaseFieldOfView": 100.0,
      "PercentSampling": 100.0,
      "PerformedProcedureStepStartTime": "154558.726000",
      "PhotometricInterpretation": "MONOCHROME2",
      "PixelBandwidth": 1985.0,
      "PixelRepresentation": 0,
      "PixelSpacing": [3.0, 3.0],
      "PregnancyStatus": 4,
      "ProcedureCodeSequence": [
        {
          "CodeMeaning": "MRI BRAIN WITHOUT IV CONTRAST",
          "CodeValue": "IMG269",
          "CodingSchemeDesignator": "L"
        }
],
      "ProtocolName": "TASK_CD",
      "RepetitionTime": 2500.0,
      "RequestAttributesSequence": [
        {
          "RequestedProcedureID": "125739966",
          "ScheduledProcedureStepDescription": "MRI BRAIN WITHOUT IV CONTRAST",
          "ScheduledProcedureStepID": "E9111054",
          "ScheduledProtocolCodeSequence": [
            {
              "CodeMeaning": "MRI BRAIN WITHOUT IV CONTRAST",
              "CodeValue": "651061",
              "CodingSchemeDesignator": "L"
            }
]
        }
],
      "RequestedProcedureCodeSequence": [
        {
          "CodeMeaning": "MRI BRAIN WITHOUT IV CONTRAST",
          "CodeValue": "IMG269",
          "CodingSchemeDesignator": "L"
        }
],
      "Rows": 504,
      "SAR": 0.10388437932687,
      "SamplesPerPixel": 1,
      "ScanOptions": "FS",
      "ScanningSequence": "EP",
      "SequenceName": "*epfid2d1_72",
      "SequenceVariant": "SK",
      "SeriesDescription": "TASK_CD",
      "SeriesNumber": 13,
      "SeriesTime": "161217.726000",
      "SliceLocation": -52.285634238757,
      "SliceThickness": 3.0,
      "SmallestImagePixelValue": 0,
      "SmokingStatus": "UNKNOWN",
      "SoftwareVersions": "syngo MR E11",
      "SpacingBetweenSlices": 2.9999999723599,
      "SpecificCharacterSet": "ISO_IR 100",
      "StudyTime": "154558.568000",
      "TransmitCoilName": "Body",
      "VariableFlipAngleFlag": "N",
      "WindowCenterWidthExplanation": "Algo1",
      "dBdt": 0.0},
    "slices": {}
  },
  "time": {
    "samples": {
      "AcquisitionNumber": [1, 2, 3, 4, 5, 6, 7, 8, 9, 10, 11, 12, 13, 14, 15, 16, 17, 18, 19, 20, 21, 22, 23, 24, 25, 26, 27, 28, 29, 30, 31, 32, 33, 34, 35, 36, 37, 38, 39, 40, 41, 42, 43, 44, 45, 46, 47, 48, 49, 50, 51, 52, 53, 54, 55, 56, 57, 58, 59, 60, 61, 62, 63, 64, 65, 66, 67, 68, 69, 70, 71, 72, 73, 74, 75, 76, 77, 78, 79, 80, 81, 82, 83, 84, 85, 86, 87, 88, 89, 90, 91, 92, 93, 94, 95, 96, 97, 98, 99, 100, 101, 102, 103, 104, 105, 106, 107, 108, 109, 110, 111, 112, 113, 114, 115, 116, 117, 118, 119, 120, 121, 122, 123, 124, 125, 126, 127, 128, 129, 130, 131, 132],
      "AcquisitionTime": ["161118.955000", "161121.455000", "161123.955000", "161126.455000", "161128.955000", "161131.455000", "161133.955000", "161136.455000", "161138.955000", "161141.455000", "161143.955000", "161146.455000", "161148.955000", "161151.455000", "161153.955000", "161156.455000", "161158.955000", "161201.455000", "161203.955000", "161206.455000", "161208.955000", "161211.455000", "161213.955000", "161216.455000", "161218.955000", "161221.455000", "161223.955000", "161226.455000", "161228.955000", "161231.455000", "161233.955000", "161236.455000", "161238.955000", "161241.455000", "161243.955000", "161246.455000", "161248.955000", "161251.455000", "161253.955000", "161256.455000", "161258.955000", "161301.455000", "161303.955000", "161306.455000", "161308.955000", "161311.455000", "161313.955000", "161316.455000", "161318.955000", "161321.455000", "161323.955000", "161326.455000", "161328.955000", "161331.455000", "161333.955000", "161336.455000", "161338.955000", "161341.455000", "161343.955000", "161346.455000", "161348.955000", "161351.455000", "161353.955000", "161356.455000", "161358.955000", "161401.455000", "161403.955000", "161406.455000", "161408.955000", "161411.455000", "161413.955000", "161416.455000", "161418.955000", "161421.455000", "161423.955000", "161426.455000", "161428.955000", "161431.455000", "161433.955000", "161436.455000", "161438.955000", "161441.455000", "161443.955000", "161446.455000", "161448.955000", "161451.455000", "161453.955000", "161456.455000", "161458.955000", "161501.455000", "161503.955000", "161506.455000", "161508.955000", "161511.455000", "161513.955000", "161516.455000", "161518.955000", "161521.455000", "161523.955000", "161526.455000", "161528.955000", "161531.455000", "161533.955000", "161536.455000", "161538.955000", "161541.455000", "161543.955000", "161546.455000", "161548.955000", "161551.455000", "161553.955000", "161556.455000", "161558.955000", "161601.455000", "161603.955000", "161606.455000", "161608.955000", "161611.455000", "161613.955000", "161616.455000", "161618.955000", "161621.455000", "161623.955000", "161626.455000", "161628.955000", "161631.455000", "161633.955000", "161636.455000", "161638.955000", "161641.455000", "161643.955000", "161646.455000"],
      "ContentTime": ["161217.729000", "161217.733000", "161217.736000", "161217.739000", "161217.741000", "161217.744000", "161217.747000", "161217.750000", "161217.752000", "161217.764000", "161217.767000", "161217.769000", "161217.772000", "161217.775000", "161217.778000", "161217.780000", "161217.783000", "161217.789000", "161217.792000", "161217.794000", "161217.797000", "161217.800000", "161217.803000", "161317.723000", "161317.726000", "161317.729000", "161317.731000", "161317.734000", "161317.737000", "161317.739000", "161317.742000", "161317.745000", "161317.747000", "161317.750000", "161317.753000", "161317.756000", "161317.758000", "161317.761000", "161317.764000", "161317.766000", "161317.770000", "161317.773000", "161317.775000", "161317.778000", "161317.781000", "161317.783000", "161317.786000", "161417.724000", "161417.727000", "161417.729000", "161417.732000", "161417.735000", "161417.738000", "161417.740000", "161417.743000", "161417.746000", "161417.748000", "161417.751000", "161417.754000", "161417.756000", "161417.759000", "161417.762000", "161417.765000", "161417.767000", "161417.778000", "161417.781000", "161417.783000", "161417.786000", "161417.789000", "161417.791000", "161417.794000", "161517.723000", "161517.726000", "161517.729000", "161517.731000", "161517.734000", "161517.737000", "161517.739000", "161517.742000", "161517.745000", "161517.747000", "161517.750000", "161517.753000", "161517.755000", "161517.758000", "161517.761000", "161517.764000", "161517.766000", "161517.769000", "161517.772000", "161517.774000", "161517.777000", "161517.780000", "161517.783000", "161517.785000", "161617.724000", "161617.727000", "161617.730000", "161617.732000", "161617.735000", "161617.738000", "161617.740000", "161617.743000", "161617.746000", "161617.748000", "161617.751000", "161617.754000", "161617.756000", "161617.759000", "161617.762000", "161617.765000", "161617.768000", "161617.770000", "161617.773000", "161617.776000", "161617.778000", "161617.781000", "161617.784000", "161617.786000", "161648.386000", "161648.397000", "161648.400000", "161648.402000", "161648.405000", "161648.408000", "161648.411000", "161648.414000", "161648.417000", "161648.427000", "161648.431000", "161648.434000", "161648.438000"],
      "InstanceCreationTime": ["161217.729000", "161217.733000", "161217.736000", "161217.739000", "161217.741000", "161217.744000", "161217.747000", "161217.750000", "161217.752000", "161217.764000", "161217.767000", "161217.769000", "161217.772000", "161217.775000", "161217.778000", "161217.780000", "161217.783000", "161217.789000", "161217.792000", "161217.794000", "161217.797000", "161217.800000", "161217.803000", "161317.723000", "161317.726000", "161317.729000", "161317.731000", "161317.734000", "161317.737000", "161317.739000", "161317.742000", "161317.745000", "161317.747000", "161317.750000", "161317.753000", "161317.756000", "161317.758000", "161317.761000", "161317.764000", "161317.766000", "161317.770000", "161317.773000", "161317.775000", "161317.778000", "161317.781000", "161317.783000", "161317.786000", "161417.724000", "161417.727000", "161417.729000", "161417.732000", "161417.735000", "161417.738000", "161417.740000", "161417.743000", "161417.746000", "161417.748000", "161417.751000", "161417.754000", "161417.756000", "161417.759000", "161417.762000", "161417.765000", "161417.767000", "161417.778000", "161417.781000", "161417.783000", "161417.786000", "161417.789000", "161417.791000", "161417.794000", "161517.723000", "161517.726000", "161517.729000", "161517.731000", "161517.734000", "161517.737000", "161517.739000", "161517.742000", "161517.745000", "161517.747000", "161517.750000", "161517.753000", "161517.755000", "161517.758000", "161517.761000", "161517.764000", "161517.766000", "161517.769000", "161517.772000", "161517.774000", "161517.777000", "161517.780000", "161517.783000", "161517.785000", "161617.724000", "161617.727000", "161617.730000", "161617.732000", "161617.735000", "161617.738000", "161617.740000", "161617.743000", "161617.746000", "161617.748000", "161617.751000", "161617.754000", "161617.756000", "161617.759000", "161617.762000", "161617.765000", "161617.768000", "161617.770000", "161617.773000", "161617.776000", "161617.778000", "161617.781000", "161617.784000", "161617.786000", "161648.386000", "161648.397000", "161648.400000", "161648.402000", "161648.405000", "161648.408000", "161648.411000", "161648.414000", "161648.417000", "161648.427000", "161648.431000", "161648.434000", "161648.438000"],
      "InstanceNumber": [1, 2, 3, 4, 5, 6, 7, 8, 9, 10, 11, 12, 13, 14, 15, 16, 17, 18, 19, 20, 21, 22, 23, 24, 25, 26, 27, 28, 29, 30, 31, 32, 33, 34, 35, 36, 37, 38, 39, 40, 41, 42, 43, 44, 45, 46, 47, 48, 49, 50, 51, 52, 53, 54, 55, 56, 57, 58, 59, 60, 61, 62, 63, 64, 65, 66, 67, 68, 69, 70, 71, 72, 73, 74, 75, 76, 77, 78, 79, 80, 81, 82, 83, 84, 85, 86, 87, 88, 89, 90, 91, 92, 93, 94, 95, 96, 97, 98, 99, 100, 101, 102, 103, 104, 105, 106, 107, 108, 109, 110, 111, 112, 113, 114, 115, 116, 117, 118, 119, 120, 121, 122, 123, 124, 125, 126, 127, 128, 129, 130, 131, 132],
      "LargestImagePixelValue": [2957, 2424, 2554, 1982, 2830, 2589, 2352, 1895, 2291, 2604, 2495, 2159, 2771, 2776, 1580, 2513, 2573, 1712, 2115, 2593, 2105, 2122, 2499, 2413, 2600, 1637, 2537, 2340, 2169, 2598, 2098, 2463, 1925, 2608, 1855, 1693, 2589, 2319, 2179, 2432, 2718, 2918, 1939, 1887, 2622, 2243, 1783, 2396, 2708, 2734, 2374, 1915, 1766, 2053, 2230, 2226, 2347, 2432, 2372, 1768, 1716, 1691, 1787, 2347, 2007, 1987, 2162, 2620, 2149, 2282, 1961, 2292, 2060, 2407, 2265, 1889, 2362, 2516, 1973, 2376, 1880, 2294, 2711, 2710, 2225, 2598, 2665, 2651, 2150, 1625, 2406, 2438, 1612, 2056, 2474, 1828, 2942, 2874, 1911, 1594, 2529, 2379, 2131, 2362, 2789, 2293, 1876, 2110, 1940, 2361, 2637, 1705, 2032, 2179, 2123, 2344, 1687, 2693, 2378, 2042, 2050, 1744, 1669, 2078, 2771, 2608, 1856, 1817, 2033, 2403, 2385, 2636],
      "WindowCenter": [668.0, 664.0, 663.0, 662.0, 664.0, 663.0, 662.0, 662.0, 664.0, 662.0, 657.0, 663.0, 663.0, 662.0, 659.0, 661.0, 661.0, 660.0, 662.0, 664.0, 662.0, 663.0, 662.0, 664.0, 661.0, 653.0, 660.0, 662.0, 663.0, 663.0, 661.0, 663.0, 662.0, 665.0, 662.0, 662.0, 668.0, 662.0, 665.0, 665.0, 664.0, 663.0, 659.0, 653.0, 654.0, 662.0, 659.0, 661.0, 663.0, 662.0, 660.0, 659.0, 661.0, 660.0, 666.0, 665.0, 666.0, 663.0, 661.0, 658.0, 660.0, 660.0, 664.0, 666.0, 665.0, 665.0, 666.0, 667.0, 663.0, 664.0, 663.0, 665.0, 664.0, 664.0, 663.0, 662.0, 664.0, 664.0, 660.0, 662.0, 663.0, 664.0, 666.0, 665.0, 663.0, 663.0, 662.0, 660.0, 659.0, 658.0, 663.0, 662.0, 659.0, 662.0, 663.0, 661.0, 662.0, 660.0, 658.0, 659.0, 664.0, 664.0, 664.0, 665.0, 664.0, 662.0, 660.0, 660.0, 662.0, 662.0, 662.0, 658.0, 662.0, 664.0, 662.0, 662.0, 660.0, 663.0, 660.0, 661.0, 659.0, 651.0, 658.0, 657.0, 658.0, 657.0, 653.0, 661.0, 664.0, 665.0, 663.0, 661.0],
      "WindowWidth": [1417.0, 1408.0, 1407.0, 1404.0, 1409.0, 1405.0, 1404.0, 1403.0, 1409.0, 1403.0, 1391.0, 1406.0, 1406.0, 1403.0, 1397.0, 1401.0, 1402.0, 1400.0, 1404.0, 1407.0, 1404.0, 1407.0, 1403.0, 1408.0, 1401.0, 1382.0, 1399.0, 1404.0, 1406.0, 1405.0, 1401.0, 1407.0, 1405.0, 1409.0, 1405.0, 1405.0, 1417.0, 1404.0, 1411.0, 1411.0, 1409.0, 1405.0, 1396.0, 1381.0, 1383.0, 1402.0, 1396.0, 1399.0, 1404.0, 1403.0, 1399.0, 1397.0, 1400.0, 1398.0, 1414.0, 1409.0, 1412.0, 1406.0, 1400.0, 1394.0, 1398.0, 1399.0, 1409.0, 1413.0, 1411.0, 1410.0, 1414.0, 1414.0, 1407.0, 1407.0, 1407.0, 1409.0, 1408.0, 1407.0, 1407.0, 1404.0, 1409.0, 1408.0, 1399.0, 1404.0, 1406.0, 1408.0, 1413.0, 1411.0, 1405.0, 1406.0, 1404.0, 1399.0, 1396.0, 1395.0, 1405.0, 1404.0, 1396.0, 1404.0, 1406.0, 1401.0, 1403.0, 1398.0, 1395.0, 1396.0, 1407.0, 1408.0, 1409.0, 1410.0, 1409.0, 1404.0, 1398.0, 1399.0, 1404.0, 1404.0, 1404.0, 1396.0, 1403.0, 1408.0, 1404.0, 1404.0, 1399.0, 1407.0, 1400.0, 1402.0, 1398.0, 1377.0, 1395.0, 1392.0, 1394.0, 1390.0, 1381.0, 1401.0, 1409.0, 1411.0, 1406.0, 1401.0]
    },
    "slices": {}
  }
}