{
  "AcquisitionMatrixPE": 72,
  "AcquisitionNumber": 1,
  "AcquisitionTime": "16:04:56.712500",
  "BandwidthPerPixelPhaseEncode": 24.366,
  "BaseResolution": 72,
  "BodyPartExamined": "HEAD",
  "CoilCombinationMethod": "Sum of Squares",
  "ConsistencyInfo": "N4_VE11C_LATEST_20160120",
  "ConversionSoftware": "dcm2niix",
  "ConversionSoftwareVersion": "v1.0.20220720",
  "DerivedVendorReportedEchoSpacing": 0.000570011,
  "DeviceSerialNumber": "45219",
  "DwellTime": 3.5e-06,
  "EchoTime": 0.03,
  "EchoTrainLength": 72,
  "EffectiveEchoSpacing": 0.000570011,
  "FlipAngle": 80,
  "HeudiconvVersion": "1.1.6",
  "ImageOrientationPatientDICOM": [0.995465, -0.0258025, -0.0915608, 0.0139002, 0.991635, -0.128325],
  "ImageOrientationText": "Tra>Cor(-7.3)>Sag(-5.4)",
  "ImageType": [
    "ORIGINAL",
    "PRIMARY",
    "M",
    "ND",
    "NORM",
    "MOSAIC"
],
  "ImagingFrequency": 123.182,
  "InPlanePhaseEncodingDirectionDICOM": "COL",
  "InstitutionAddress": "First Avenue 660,New York,NYC,US,10016",
  "InstitutionName": "NYU LANGONE CBI",
  "InstitutionalDepartmentName": "Department",
  "MRAcquisitionType": "2D",
  "MagneticFieldStrength": 3,
  "Manufacturer": "Siemens",
  "ManufacturersModelName": "Skyra",
  "MatrixCoilMode": "SENSE",
  "Modality": "MR",
  "NonlinearGradientCorrection": false,
  "PartialFourier": 1,
  "PatientPosition": "HFS",
  "PercentPhaseFOV": 100,
  "PercentSampling": 100,
  "PhaseEncodingDirection": "j-",
  "PhaseEncodingSteps": 72,
  "PhaseResolution": 1,
  "PixelBandwidth": 1985,
  "ProcedureStepDescription": "MRI BRAIN WITHOUT IV CONTRAST",
  "ProtocolName": "TASK_AB",
  "PulseSequenceDetails": "%SiemensSeq%\\ep2d_bold",
  "ReceiveCoilActiveElements": "HE1-4",
  "ReceiveCoilName": "HeadNeck_20",
  "ReconMatrixPE": 72,
  "RepetitionTime": 2.5,
  "SAR": 0.103884,
  "ScanOptions": "FS",
  "ScanningSequence": "EP",
  "SequenceName": "*epfid2d1_72",
  "SequenceVariant": "SK",
  "SeriesDescription": "TASK_AB",
  "SeriesNumber": 11,
  "ShimSetting": [-922, -6978, 4997, 264, -205, -397, 476, -107],
  "SliceThickness": 3,
  "SliceTiming": [1.24, 0, 1.305, 0.065, 1.37, 0.13, 1.435, 0.195, 1.5, 0.26, 1.5675, 0.3275, 1.6325, 0.3925, 1.6975, 0.4575, 1.7625, 0.5225, 1.8275, 0.5875, 1.8925, 0.6525, 1.9575, 0.7175, 2.0225, 0.7825, 2.0875, 0.8475, 2.1525, 0.9125, 2.22, 0.98, 2.285, 1.045, 2.35, 1.11, 2.415, 1.175],
  "SoftwareVersions": "syngo MR E11",
  "SpacingBetweenSlices": 3,
  "StationName": "MRC45219",
  "TaskName": "ab",
  "TotalReadoutTime": 0.0404708,
  "TxRefAmp": 424.19,
  "dcmmeta_affine": [
    [-2.9863953590393066, 0.04170067235827446, -0.2823180556297302, 109.15480041503906],
    [0.07740763574838638, 2.9749042987823486, -0.3794099688529968, -108.03404998779297],
    [-0.27468252182006836, 0.3849739134311676, 2.962489604949951, -56.38153839111328],
    [0.0, 0.0, 0.0, 1.0]
],
  "dcmmeta_reorient_transform": [
    [0.0, -1.0, 0.0, 71.0],
    [1.0, 0.0, 0.0, 0.0],
    [0.0, 0.0, 1.0, 0.0],
    [0.0, 0.0, 0.0, 1.0]
],
  "dcmmeta_shape": [72, 72, 38, 132],
  "dcmmeta_slice_dim": 2,
  "dcmmeta_version": 0.6,
  "global": {
    "const": {
      "AcquisitionMatrix": [72, 0, 0, 72],
      "AngioFlag": "N",
      "BitsAllocated": 16,
      "BitsStored": 12,
      "BodyPartExamined": "HEAD",
      "Columns": 504,
      "CountryOfResidence": "United States of America [1]",
      "EchoNumbers": 1,
      "EchoTime": 30.0,
      "EchoTrainLength": 72,
      "FlipAngle": 80.0,
      "HighBit": 11,
      "ImageOrientationPatient": [0.99546513790842, -0.0258025443384, -0.0915608426929, 0.01390022444533, 0.99163479723341, -0.1283246378379],
      "ImagePositionPatient": [-766.18430010009, -729.04346280688, 113.43739895879],
      "ImageType": [
        "ORIGINAL",
        "PRIMARY",
        "M",
        "ND",
        "NORM",
        "MOSAIC"
],
      "ImagedNucleus": "1H",
      "ImagingFrequency": 123.182103,
      "InPlanePhaseEncodingDirection": "COL",
      "MRAcquisitionType": "2D",
      "MagneticFieldStrength": 3.0,
      "Manufacturer": "SIEMENS",
      "ManufacturerModelName": "Skyra",
      "Modality": "MR",
      "NumberOfAverages": 1.0,
      "NumberOfPhaseEncodingSteps": 72,
      "PercentPhaseFieldOfView": 100.0,
      "PercentSampling": 100.0,
      "PerformedProcedureStepStartTime": "154558.726000",
      "PhotometricInterpretation": "MONOCHROME2",
      "PixelBandwidth": 1985.0,
      "PixelRepresentation": 0,
      "PixelSpacing": [3.0, 3.0],
      "PregnancyStatus": 4,
      "ProcedureCodeSequence": [
        {
          "CodeMeaning": "MRI BRAIN WITHOUT IV CONTRAST",
          "CodeValue": "IMG269",
          "CodingSchemeDesignator": "L"
        }
],
      "ProtocolName": "TASK_AB",
      "RepetitionTime": 2500.0,
      "RequestAttributesSequence": [
        {
          "RequestedProcedureID": "125739966",
          "ScheduledProcedureStepDescription": "MRI BRAIN WITHOUT IV CONTRAST",
          "ScheduledProcedureStepID": "E9111054",
          "ScheduledProtocolCodeSequence": [
            {
              "CodeMeaning": "MRI BRAIN WITHOUT IV CONTRAST",
              "CodeValue": "651061",
              "CodingSchemeDesignator": "L"
            }
]
        }
],
      "RequestedProcedureCodeSequence": [
        {
          "CodeMeaning": "MRI BRAIN WITHOUT IV CONTRAST",
          "CodeValue": "IMG269",
          "CodingSchemeDesignator": "L"
        }
],
      "Rows": 504,
      "SAR": 0.10388437932687,
      "SamplesPerPixel": 1,
      "ScanOptions": "FS",
      "ScanningSequence": "EP",
      "SequenceName": "*epfid2d1_72",
      "SequenceVariant": "SK",
      "SeriesDescription": "TASK_AB",
      "SeriesNumber": 11,
      "SeriesTime": "160555.077000",
      "SliceLocation": -52.285634238757,
      "SliceThickness": 3.0,
      "SmallestImagePixelValue": 0,
      "SmokingStatus": "UNKNOWN",
      "SoftwareVersions": "syngo MR E11",
      "SpacingBetweenSlices": 2.9999999723599,
      "SpecificCharacterSet": "ISO_IR 100",
      "StudyTime": "154558.568000",
      "TransmitCoilName": "Body",
      "VariableFlipAngleFlag": "N",
      "WindowCenterWidthExplanation": "Algo1",
      "dBdt": 0.0},
    "slices": {}
  },
  "time": {
    "samples": {
      "AcquisitionNumber": [1, 2, 3, 4, 5, 6, 7, 8, 9, 10, 11, 12, 13, 14, 15, 16, 17, 18, 19, 20, 21, 22, 23, 24, 25, 26, 27, 28, 29, 30, 31, 32, 33, 34, 35, 36, 37, 38, 39, 40, 41, 42, 43, 44, 45, 46, 47, 48, 49, 50, 51, 52, 53, 54, 55, 56, 57, 58, 59, 60, 61, 62, 63, 64, 65, 66, 67, 68, 69, 70, 71, 72, 73, 74, 75, 76, 77, 78, 79, 80, 81, 82, 83, 84, 85, 86, 87, 88, 89, 90, 91, 92, 93, 94, 95, 96, 97, 98, 99, 100, 101, 102, 103, 104, 105, 106, 107, 108, 109, 110, 111, 112, 113, 114, 115, 116, 117, 118, 119, 120, 121, 122, 123, 124, 125, 126, 127, 128, 129, 130, 131, 132],
      "AcquisitionTime": ["160456.712500", "160459.212500", "160501.712500", "160504.212500", "160506.712500", "160509.212500", "160511.712500", "160514.212500", "160516.712500", "160519.212500", "160521.712500", "160524.212500", "160526.712500", "160529.212500", "160531.712500", "160534.212500", "160536.712500", "160539.212500", "160541.712500", "160544.212500", "160546.712500", "160549.212500", "160551.712500", "160554.212500", "160556.712500", "160559.212500", "160601.712500", "160604.212500", "160606.712500", "160609.212500", "160611.712500", "160614.212500", "160616.712500", "160619.212500", "160621.712500", "160624.212500", "160626.712500", "160629.212500", "160631.712500", "160634.212500", "160636.712500", "160639.212500", "160641.712500", "160644.212500", "160646.712500", "160649.212500", "160651.712500", "160654.212500", "160656.712500", "160659.212500", "160701.712500", "160704.212500", "160706.712500", "160709.212500", "160711.712500", "160714.212500", "160716.712500", "160719.212500", "160721.712500", "160724.212500", "160726.712500", "160729.212500", "160731.712500", "160734.212500", "160736.712500", "160739.212500", "160741.712500", "160744.212500", "160746.712500", "160749.212500", "160751.712500", "160754.212500", "160756.712500", "160759.212500", "160801.712500", "160804.212500", "160806.712500", "160809.212500", "160811.712500", "160814.212500", "160816.712500", "160819.212500", "160821.712500", "160824.212500", "160826.712500", "160829.212500", "160831.712500", "160834.212500", "160836.712500", "160839.212500", "160841.712500", "160844.212500", "160846.712500", "160849.212500", "160851.712500", "160854.212500", "160856.712500", "160859.212500", "160901.712500", "160904.212500", "160906.712500", "160909.212500", "160911.712500", "160914.212500", "160916.712500", "160919.212500", "160921.712500", "160924.212500", "160926.712500", "160929.212500", "160931.712500", "160934.212500", "160936.712500", "160939.212500", "160941.712500", "160944.212500", "160946.712500", "160949.212500", "160951.712500", "160954.212500", "160956.712500", "160959.212500", "161001.712500", "161004.212500", "161006.712500", "161009.212500", "161011.712500", "161014.212500", "161016.712500", "161019.212500", "161021.712500", "161024.212500"],
      "ContentTime": ["160555.080000", "160555.084000", "160555.092000", "160555.095000", "160555.097000", "160555.100000", "160555.103000", "160555.105000", "160555.108000", "160555.111000", "160555.115000", "160555.118000", "160555.121000", "160555.124000", "160555.126000", "160555.129000", "160555.132000", "160555.134000", "160555.137000", "160555.140000", "160555.142000", "160555.145000", "160555.148000", "160655.076000", "160655.079000", "160655.081000", "160655.084000", "160655.087000", "160655.089000", "160655.092000", "160655.095000", "160655.111000", "160655.114000", "160655.116000", "160655.119000", "160655.122000", "160655.124000", "160655.127000", "160655.130000", "160655.132000", "160655.135000", "160655.138000", "160655.140000", "160655.143000", "160655.146000", "160655.148000", "160655.151000", "160755.076000", "160755.079000", "160755.081000", "160755.084000", "160755.087000", "160755.089000", "160755.092000", "160755.095000", "160755.098000", "160755.100000", "160755.108000", "160755.111000", "160755.114000", "160755.117000", "160755.119000", "160755.122000", "160755.125000", "160755.128000", "160755.130000", "160755.133000", "160755.136000", "160755.138000", "160755.141000", "160755.144000", "160855.075000", "160855.078000", "160855.080000", "160855.083000", "160855.086000", "160855.089000", "160855.091000", "160855.094000", "160855.097000", "160855.099000", "160855.102000", "160855.105000", "160855.108000", "160855.110000", "160855.113000", "160855.116000", "160855.124000", "160855.126000", "160855.129000", "160855.132000", "160855.135000", "160855.137000", "160855.140000", "160855.143000", "160955.076000", "160955.079000", "160955.081000", "160955.084000", "160955.087000", "160955.089000", "160955.092000", "160955.095000", "160955.098000", "160955.100000", "160955.103000", "160955.106000", "160955.109000", "160955.111000", "160955.114000", "160955.117000", "160955.120000", "160955.122000", "160955.125000", "160955.127000", "160955.130000", "160955.133000", "160955.136000", "160955.138000", "161026.399000", "161026.402000", "161026.404000", "161026.407000", "161026.410000", "161026.413000", "161026.415000", "161026.418000", "161026.421000", "161026.424000", "161026.427000", "161026.430000", "161026.436000"],
      "InstanceCreationTime": ["160555.080000", "160555.084000", "160555.092000", "160555.095000", "160555.097000", "160555.100000", "160555.103000", "160555.105000", "160555.108000", "160555.111000", "160555.115000", "160555.118000", "160555.121000", "160555.124000", "160555.126000", "160555.129000", "160555.132000", "160555.134000", "160555.137000", "160555.140000", "160555.142000", "160555.145000", "160555.148000", "160655.076000", "160655.079000", "160655.081000", "160655.084000", "160655.087000", "160655.089000", "160655.092000", "160655.095000", "160655.111000", "160655.114000", "160655.116000", "160655.119000", "160655.122000", "160655.124000", "160655.127000", "160655.130000", "160655.132000", "160655.135000", "160655.138000", "160655.140000", "160655.143000", "160655.146000", "160655.148000", "160655.151000", "160755.076000", "160755.079000", "160755.081000", "160755.084000", "160755.087000", "160755.089000", "160755.092000", "160755.095000", "160755.098000", "160755.100000", "160755.108000", "160755.111000", "160755.114000", "160755.117000", "160755.119000", "160755.122000", "160755.125000", "160755.128000", "160755.130000", "160755.133000", "160755.136000", "160755.138000", "160755.141000", "160755.144000", "160855.075000", "160855.078000", "160855.080000", "160855.083000", "160855.086000", "160855.089000", "160855.091000", "160855.094000", "160855.097000", "160855.099000", "160855.102000", "160855.105000", "160855.108000", "160855.110000", "160855.113000", "160855.116000", "160855.124000", "160855.126000", "160855.129000", "160855.132000", "160855.135000", "160855.137000", "160855.140000", "160855.143000", "160955.076000", "160955.079000", "160955.081000", "160955.084000", "160955.087000", "160955.089000", "160955.092000", "160955.095000", "160955.098000", "160955.100000", "160955.103000", "160955.106000", "160955.109000", "160955.111000", "160955.114000", "160955.117000", "160955.120000", "160955.122000", "160955.125000", "160955.127000", "160955.130000", "160955.133000", "160955.136000", "160955.138000", "161026.399000", "161026.402000", "161026.404000", "161026.407000", "161026.410000", "161026.413000", "161026.415000", "161026.418000", "161026.421000", "161026.424000", "161026.427000", "161026.430000", "161026.436000"],
      "InstanceNumber": [1, 2, 3, 4, 5, 6, 7, 8, 9, 10, 11, 12, 13, 14, 15, 16, 17, 18, 19, 20, 21, 22, 23, 24, 25, 26, 27, 28, 29, 30, 31, 32, 33, 34, 35, 36, 37, 38, 39, 40, 41, 42, 43, 44, 45, 46, 47, 48, 49, 50, 51, 52, 53, 54, 55, 56, 57, 58, 59, 60, 61, 62, 63, 64, 65, 66, 67, 68, 69, 70, 71, 72, 73, 74, 75, 76, 77, 78, 79, 80, 81, 82, 83, 84, 85, 86, 87, 88, 89, 90, 91, 92, 93, 94, 95, 96, 97, 98, 99, 100, 101, 102, 103, 104, 105, 106, 107, 108, 109, 110, 111, 112, 113, 114, 115, 116, 117, 118, 119, 120, 121, 122, 123, 124, 125, 126, 127, 128, 129, 130, 131, 132],
      "LargestImagePixelValue": [2108, 1687, 1620, 2159, 2068, 2074, 1624, 1724, 1716, 1583, 1913, 1726, 2278, 2163, 2115, 1631, 2027, 1940, 1951, 1930, 1847, 1728, 2165, 1986, 2116, 1910, 1712, 2264, 1776, 2020, 2030, 2144, 2164, 2061, 1794, 2203, 2185, 2027, 1839, 1774, 1949, 2154, 2005, 2226, 2066, 1929, 1933, 2296, 1883, 1794, 1717, 2123, 2493, 1663, 1771, 1800, 2387, 2104, 1881, 1989, 2000, 2315, 2132, 2109, 1844, 1621, 2188, 1878, 2001, 2277, 1856, 2002, 2303, 1757, 1983, 2404, 2083, 2112, 2090, 2410, 1911, 1534, 2352, 2019, 1980, 2141, 1752, 1841, 2504, 1916, 2018, 2091, 2232, 1962, 1706, 2056, 2497, 2332, 2024, 2197, 2037, 1734, 2353, 2235, 1523, 2078, 2603, 2726, 2174, 2425, 1913, 1915, 2132, 2105, 1940, 1658, 2183, 2061, 2112, 2371, 2127, 1955, 2013, 2083, 2433, 2085, 2016, 2157, 2425, 2240, 2298, 1708],
      "WindowCenter": [664.0, 662.0, 662.0, 664.0, 662.0, 662.0, 661.0, 662.0, 662.0, 663.0, 665.0, 663.0, 664.0, 661.0, 661.0, 660.0, 663.0, 663.0, 664.0, 664.0, 664.0, 663.0, 664.0, 662.0, 662.0, 661.0, 661.0, 663.0, 662.0, 663.0, 663.0, 664.0, 664.0, 662.0, 661.0, 663.0, 663.0, 662.0, 662.0, 662.0, 663.0, 664.0, 664.0, 664.0, 663.0, 662.0, 661.0, 662.0, 660.0, 660.0, 661.0, 661.0, 662.0, 660.0, 662.0, 663.0, 665.0, 664.0, 663.0, 664.0, 663.0, 664.0, 662.0, 661.0, 660.0, 660.0, 663.0, 662.0, 662.0, 664.0, 663.0, 663.0, 663.0, 662.0, 663.0, 663.0, 661.0, 662.0, 662.0, 662.0, 660.0, 660.0, 664.0, 662.0, 659.0, 662.0, 660.0, 660.0, 662.0, 661.0, 662.0, 662.0, 661.0, 661.0, 662.0, 661.0, 662.0, 660.0, 660.0, 661.0, 656.0, 638.0, 667.0, 662.0, 660.0, 663.0, 663.0, 661.0, 659.0, 661.0, 658.0, 659.0, 663.0, 662.0, 662.0, 661.0, 664.0, 663.0, 663.0, 664.0, 663.0, 661.0, 663.0, 663.0, 661.0, 662.0, 663.0, 661.0, 664.0, 661.0, 662.0, 655.0],
      "WindowWidth": [1407.0, 1402.0, 1404.0, 1407.0, 1403.0, 1403.0, 1401.0, 1403.0, 1403.0, 1405.0, 1410.0, 1406.0, 1408.0, 1401.0, 1399.0, 1398.0, 1405.0, 1405.0, 1406.0, 1406.0, 1407.0, 1406.0, 1406.0, 1402.0, 1402.0, 1401.0, 1400.0, 1404.0, 1402.0, 1405.0, 1404.0, 1407.0, 1407.0, 1403.0, 1401.0, 1404.0, 1404.0, 1403.0, 1403.0, 1402.0, 1405.0, 1407.0, 1407.0, 1406.0, 1405.0, 1403.0, 1401.0, 1403.0, 1398.0, 1399.0, 1400.0, 1400.0, 1402.0, 1400.0, 1403.0, 1405.0, 1409.0, 1407.0, 1406.0, 1408.0, 1406.0, 1407.0, 1403.0, 1399.0, 1398.0, 1398.0, 1406.0, 1402.0, 1403.0, 1408.0, 1406.0, 1405.0, 1406.0, 1403.0, 1404.0, 1404.0, 1400.0, 1402.0, 1402.0, 1402.0, 1397.0, 1398.0, 1408.0, 1403.0, 1395.0, 1402.0, 1399.0, 1399.0, 1403.0, 1401.0, 1403.0, 1402.0, 1401.0, 1402.0, 1402.0, 1400.0, 1403.0, 1399.0, 1398.0, 1400.0, 1388.0, 1346.0, 1417.0, 1404.0, 1399.0, 1406.0, 1405.0, 1401.0, 1395.0, 1399.0, 1393.0, 1397.0, 1404.0, 1403.0, 1403.0, 1400.0, 1407.0, 1406.0, 1406.0, 1406.0, 1404.0, 1401.0, 1405.0, 1405.0, 1400.0, 1404.0, 1405.0, 1400.0, 1407.0, 1400.0, 1402.0, 1386.0]
    },
    "slices": {}
  }
}