{
  "AcquisitionMatrixPE": 72,
  "AcquisitionNumber": 1,
  "AcquisitionTime": "16:36:59.537500",
  "BaseResolution": 72,
  "BodyPartExamined": "BRAIN",
  "CoilCombinationMethod": "Sum of Squares",
  "ConsistencyInfo": "N4_VE11C_LATEST_20160120",
  "ConversionSoftware": "dcm2niix",
  "ConversionSoftwareVersion": "v1.0.20220720",
  "DeviceSerialNumber": "45219",
  "DwellTime": 2.39e-05,
  "EchoNumber": 2,
  "EchoTime": 0.00738,
  "EchoTime1": 0.00492,
  "EchoTime2": 0.00738,
  "FlipAngle": 60,
  "HeudiconvVersion": "1.1.6",
  "ImageOrientationPatientDICOM": [0.999194, -0.0031487, 0.0400081, 1.4568e-11, 0.996917, 0.0784591],
  "ImageOrientationText": "Tra>Cor(4.5)>Sag(2.3)",
  "ImageType": [
    "ORIGINAL",
    "PRIMARY",
    "P",
    "ND",
    "PHASE"
],
  "ImagingFrequency": 123.182,
  "InPlanePhaseEncodingDirectionDICOM": "ROW",
  "InstitutionAddress": "First Avenue 660,New York,NYC,US,10016",
  "InstitutionName": "NYU LANGONE CBI",
  "InstitutionalDepartmentName": "Department",
  "MRAcquisitionType": "2D",
  "MagneticFieldStrength": 3,
  "Manufacturer": "Siemens",
  "ManufacturersModelName": "Skyra",
  "MatrixCoilMode": "SENSE",
  "Modality": "MR",
  "MultibandAccelerationFactor": 2,
  "NonlinearGradientCorrection": false,
  "PartialFourier": 1,
  "PatientPosition": "HFS",
  "PercentPhaseFOV": 100,
  "PercentSampling": 100,
  "PhaseEncodingDirection": "i",
  "PhaseEncodingSteps": 72,
  "PhaseResolution": 1,
  "PixelBandwidth": 290,
  "ProcedureStepDescription": "MRI BRAIN WITHOUT IV CONTRAST",
  "ProtocolName": "gre_fm_bold",
  "PulseSequenceDetails": "%SiemensSeq%\\gre_field_mapping",
  "ReceiveCoilActiveElements": "HE1-4",
  "ReceiveCoilName": "HeadNeck_20",
  "ReconMatrixPE": 72,
  "RepetitionTime": 0.444,
  "SAR": 0.243434,
  "ScanningSequence": "GR",
  "SequenceName": "*fm2d2r",
  "SequenceVariant": "SP",
  "SeriesDescription": "gre_fm_bold",
  "SeriesNumber": 6,
  "ShimSetting": [-880, -7077, 5302, 479, -306, 1, -74, -96],
  "SliceThickness": 3,
  "SliceTiming": [0.21875, 0, 0.23438, 0.01562, 0.25, 0.03125, 0.26562, 0.04688, 0.26562, 0.04688, 0.28125, 0.0625, 0.29688, 0.07812, 0.3125, 0.07812, 0.3125, 0.09375, 0.32812, 0.10938, 0.34375, 0.125, 0.35938, 0.125, 0.35938, 0.14062, 0.375, 0.15625, 0.39062, 0.17188, 0.40625, 0.1875, 0.40625, 0.1875, 0.42188, 0.20312, 0.4375, 0.21875],
  "SoftwareVersions": "syngo MR E11",
  "SpacingBetweenSlices": 3,
  "StationName": "MRC45219",
  "TxRefAmp": 453.087,
  "dcmmeta_affine": [
    [-2.9975831508636475, 4.3703998753308326e-11, 0.12039542198181152, 104.99795532226562],
    [0.00944611243903637, 2.9907519817352295, 0.23518766462802887, -113.50057983398438],
    [0.12002423405647278, -0.23537728190422058, 2.98834228515625, 14.953190803527832],
    [0.0, 0.0, 0.0, 1.0]
],
  "dcmmeta_reorient_transform": [
    [0.0, -1.0, 0.0, 71.0],
    [1.0, 0.0, 0.0, 0.0],
    [0.0, 0.0, -1.0, 37.0],
    [0.0, 0.0, 0.0, 1.0]
],
  "dcmmeta_shape": [72, 72, 38],
  "dcmmeta_slice_dim": 2,
  "dcmmeta_version": 0.6,
  "global": {
    "const": {
      "AccessionNumber": "REMOVED",
      "AcquisitionMatrix": [0, 72, 72, 0],
      "AcquisitionNumber": 1,
      "AngioFlag": "N",
      "BitsAllocated": 16,
      "BitsStored": 12,
      "BodyPartExamined": "BRAIN",
      "Columns": 72,
      "CountryOfResidence": "REMOVED",
      "DeidentificationMethod": "anonymize.default",
      "DeidentificationMethodCodeSequence": [
        {
          "CodeMeaning": "Basic Anonymization",
          "CodeValue": "113199",
          "CodingSchemeDesignator": "2012CDX"
        }
],
      "EchoNumbers": 2,
      "EchoTime": 7.38,
      "EchoTrainLength": 0,
      "FlipAngle": 60.0,
      "HighBit": 11,
      "ImageOrientationPatient": [0.99919439517884, -0.003148704036, 0.04000807801048, 1.4568e-11, 0.99691733374241, 0.07845909560991],
      "ImageType": [
        "ORIGINAL",
        "PRIMARY",
        "P",
        "ND"
],
      "ImagedNucleus": "1H",
      "ImagingFrequency": 123.181852,
      "InPlanePhaseEncodingDirection": "ROW",
      "MRAcquisitionType": "2D",
      "MagneticFieldStrength": 3.0,
      "Manufacturer": "SIEMENS",
      "ManufacturerModelName": "Skyra",
      "Modality": "MR",
      "NumberOfAverages": 1.0,
      "NumberOfPhaseEncodingSteps": 72,
      "PercentPhaseFieldOfView": 100.0,
      "PercentSampling": 100.0,
      "PerformedProcedureStepStartTime": "162629.527000",
      "PhotometricInterpretation": "MONOCHROME2",
      "PixelBandwidth": 290.0,
      "PixelRepresentation": 0,
      "PixelSpacing": [3.0, 3.0],
      "PregnancyStatus": 0,
      "ProcedureCodeSequence": [
        {
          "CodeMeaning": "MRI BRAIN WITHOUT IV CONTRAST",
          "CodeValue": "IMG269",
          "CodingSchemeDesignator": "L"
        }
],
      "ProtocolName": "gre_fm_bold",
      "RepetitionTime": 444.0,
      "RequestAttributesSequence": [
        {
          "RequestedProcedureID": "365122554",
          "ScheduledProcedureStepDescription": "MRI BRAIN WITHOUT IV CONTRAST",
          "ScheduledProcedureStepID": "E10670491",
          "ScheduledProtocolCodeSequence": [
            {
              "CodeMeaning": "MRI BRAIN WITHOUT IV CONTRAST",
              "CodeValue": "651061",
              "CodingSchemeDesignator": "L"
            }
]
        }
],
      "RequestedProcedureCodeSequence": [
        {
          "CodeMeaning": "MRI BRAIN WITHOUT IV CONTRAST",
          "CodeValue": "IMG269",
          "CodingSchemeDesignator": "L"
        }
],
      "RescaleIntercept": -4096.0,
      "RescaleSlope": 2.0,
      "RescaleType": "US",
      "Rows": 72,
      "SAR": 0.24343434905376,
      "SamplesPerPixel": 1,
      "ScanningSequence": "GR",
      "SequenceName": "*fm2d2r",
      "SequenceVariant": "SP",
      "SeriesDescription": "gre_fm_bold",
      "SeriesNumber": 6,
      "SeriesTime": "163804.434000",
      "SliceThickness": 3.0,
      "SmokingStatus": "REMOVED",
      "SoftwareVersions": "syngo MR E11",
      "SpacingBetweenSlices": 3.0,
      "SpecificCharacterSet": "ISO_IR 100",
      "StudyID": "REMOVED",
      "StudyTime": "162629.373000",
      "TransmitCoilName": "Body",
      "VariableFlipAngleFlag": "N",
      "WindowCenterWidthExplanation": "Algo1",
      "dBdt": 0.0},
    "slices": {
      "AcquisitionTime": ["163659.537500", "163659.315000", "163659.550000", "163659.327500", "163659.562500", "163659.340000", "163659.572500", "163659.352500", "163659.585000", "163659.362500", "163659.597500", "163659.375000", "163659.607500", "163659.387500", "163659.620000", "163659.397500", "163659.632500", "163659.410000", "163659.642500", "163659.422500", "163659.655000", "163659.432500", "163659.667500", "163659.445000", "163659.677500", "163659.457500", "163659.690000", "163659.467500", "163659.702500", "163659.480000", "163659.712500", "163659.492500", "163659.725000", "163659.502500", "163659.737500", "163659.515000", "163659.747500", "163659.527500"],
      "ContentTime": ["163804.500000", "163804.438000", "163804.502000", "163804.441000", "163804.504000", "163804.444000", "163804.507000", "163804.447000", "163804.509000", "163804.453000", "163804.511000", "163804.456000", "163804.515000", "163804.459000", "163804.518000", "163804.461000", "163804.520000", "163804.464000", "163804.522000", "163804.466000", "163804.527000", "163804.469000", "163804.542000", "163804.472000", "163804.544000", "163804.474000", "163804.547000", "163804.476000", "163804.549000", "163804.480000", "163804.557000", "163804.488000", "163804.559000", "163804.493000", "163804.561000", "163804.496000", "163804.563000", "163804.498000"],
      "CsaImage.ICE_Dims": [
        "X_2_1_1_1_1_1_20_1_1_1_1_2569",
        "X_2_1_1_1_1_1_1_1_1_2_1_2569",
        "X_2_1_1_1_1_1_21_1_1_3_1_2569",
        "X_2_1_1_1_1_1_2_1_1_4_1_2569",
        "X_2_1_1_1_1_1_22_1_1_5_1_2569",
        "X_2_1_1_1_1_1_3_1_1_6_1_2569",
        "X_2_1_1_1_1_1_23_1_1_7_1_2569",
        "X_2_1_1_1_1_1_4_1_1_8_1_2569",
        "X_2_1_1_1_1_1_24_1_1_9_1_2569",
        "X_2_1_1_1_1_1_5_1_1_10_1_2569",
        "X_2_1_1_1_1_1_25_1_1_11_1_2569",
        "X_2_1_1_1_1_1_6_1_1_12_1_2569",
        "X_2_1_1_1_1_1_26_1_1_13_1_2569",
        "X_2_1_1_1_1_1_7_1_1_14_1_2569",
        "X_2_1_1_1_1_1_27_1_1_15_1_2569",
        "X_2_1_1_1_1_1_8_1_1_16_1_2569",
        "X_2_1_1_1_1_1_28_1_1_17_1_2569",
        "X_2_1_1_1_1_1_9_1_1_18_1_2569",
        "X_2_1_1_1_1_1_29_1_1_19_1_2569",
        "X_2_1_1_1_1_1_10_1_1_20_1_2569",
        "X_2_1_1_1_1_1_30_1_1_21_1_2569",
        "X_2_1_1_1_1_1_11_1_1_22_1_2569",
        "X_2_1_1_1_1_1_31_1_1_23_1_2569",
        "X_2_1_1_1_1_1_12_1_1_24_1_2569",
        "X_2_1_1_1_1_1_32_1_1_25_1_2569",
        "X_2_1_1_1_1_1_13_1_1_26_1_2569",
        "X_2_1_1_1_1_1_33_1_1_27_1_2569",
        "X_2_1_1_1_1_1_14_1_1_28_1_2569",
        "X_2_1_1_1_1_1_34_1_1_29_1_2569",
        "X_2_1_1_1_1_1_15_1_1_30_1_2569",
        "X_2_1_1_1_1_1_35_1_1_31_1_2569",
        "X_2_1_1_1_1_1_16_1_1_32_1_2569",
        "X_2_1_1_1_1_1_36_1_1_33_1_2569",
        "X_2_1_1_1_1_1_17_1_1_34_1_2569",
        "X_2_1_1_1_1_1_37_1_1_35_1_2569",
        "X_2_1_1_1_1_1_18_1_1_36_1_2569",
        "X_2_1_1_1_1_1_38_1_1_37_1_2569",
        "X_2_1_1_1_1_1_19_1_1_38_1_2569"
],
      "CsaImage.ProtocolSliceNumber": [0, 1, 2, 3, 4, 5, 6, 7, 8, 9, 10, 11, 12, 13, 14, 15, 16, 17, 18, 19, 20, 21, 22, 23, 24, 25, 26, 27, 28, 29, 30, 31, 32, 33, 34, 35, 36, 37],
      "CsaImage.SliceMeasurementDuration": [63047.5, 63050.0, 63047.5, 63047.5, 63047.5, 63047.5, 63047.5, 63047.5, 63047.5, 63047.5, 63047.5, 63047.5, 63047.5, 63047.5, 63047.5, 63047.5, 63047.5, 63047.5, 63050.0, 63047.5, 63047.5, 63047.5, 63047.5, 63047.5, 63050.0, 63047.5, 63047.5, 63047.5, 63047.5, 63047.5, 63050.0, 63047.5, 63047.5, 63047.5, 63047.5, 63047.5, 63050.0, 63047.5],
      "CsaImage.SlicePosition_PCS": [
        [-104.99795633, -98.84281344, -1.75860995],
        [-105.11835176, -99.07800192, 1.22973234],
        [-105.23874694, -99.31318945, 4.21807462],
        [-105.35914236, -99.54837698, 7.20641691],
        [-105.47953778, -99.78356451, 10.1947611],
        [-105.59993321, -100.01875204, 13.18310338],
        [-105.72032863, -100.25394005, 16.17144567],
        [-105.84072405, -100.48912758, 19.15978796],
        [-105.96111935, -100.72431511, 22.14813024],
        [-106.08151465, -100.95950264, 25.13647253],
        [-106.20191008, -101.19469065, 28.12481481],
        [-106.3223055, -101.42987818, 31.1131571],
        [-106.4427008, -101.66506571, 34.1015032],
        [-106.56309622, -101.90025372, 37.08984548],
        [-106.68349165, -102.13544125, 40.07818777],
        [-106.80388695, -102.37062878, 43.06653005],
        [-106.92428237, -102.60581631, 46.05487234],
        [-107.04467773, -102.84100432, 49.04321462],
        [-107.16507309, -103.07619185, 52.03155691],
        [-107.28546846, -103.31137938, 55.01989919],
        [-107.40586388, -103.54656715, 58.00824148],
        [-107.52625924, -103.78175492, 60.99658376],
        [-107.6466546, -104.01694245, 63.98492605],
        [-107.76704998, -104.25213022, 66.97326833],
        [-107.88744537, -104.48731775, 69.96161062],
        [-108.00784074, -104.72250552, 72.9499529],
        [-108.12823611, -104.95769305, 75.93829519],
        [-108.24863151, -105.19288082, 78.92663747],
        [-108.36902687, -105.42806846, 81.91498739],
        [-108.48942226, -105.66325611, 84.90332967],
        [-108.60981762, -105.89844376, 87.89167196],
        [-108.73021298, -106.13363153, 90.88001424],
        [-108.85060841, -106.36881912, 93.86835653],
        [-108.97100371, -106.60400683, 96.85669881],
        [-109.09139913, -106.83919448, 99.8450411],
        [-109.21179455, -107.07438216, 102.83338338],
        [-109.33218986, -107.30956982, 105.82172567],
        [-109.45258528, -107.54475748, 108.81006795]
],
      "CsaImage.TimeAfterStart": [0.6675, 0.4475, 0.68, 0.4575, 0.6925, 0.47, 0.7025, 0.4825, 0.715, 0.4925, 0.7275, 0.505, 0.7375, 0.5175, 0.75, 0.5275, 0.7625, 0.54, 0.775, 0.5525, 0.785, 0.5625, 0.7975, 0.575, 0.81, 0.5875, 0.82, 0.5975, 0.8325, 0.61, 0.845, 0.6225, 0.855, 0.6325, 0.8675, 0.645, 0.88, 0.6575],
      "ImagePositionPatient": [
        [-104.99795633364, -98.842813438037, -1.7586099481458],
        [-105.11835175563, -99.078001922229, 1.2297323370105],
        [-105.23874693919, -99.313189452746, 4.2180746221667],
        [-105.35914236117, -99.548376983264, 7.206416907323],
        [-105.47953778315, -99.783564513782, 10.194761099828],
        [-105.59993320513, -100.0187520443, 13.183103384984],
        [-105.72032862712, -100.25394005165, 16.17144567014],
        [-105.8407240491, -100.48912758217, 19.159787955297],
        [-105.96111935187, -100.72431511269, 22.148130240453],
        [-106.08151465464, -100.95950264321, 25.136472525609],
        [-106.20191007662, -101.19469065056, 28.124814810765],
        [-106.32230549861, -101.42987818108, 31.113157095922],
        [-106.44270080138, -101.6650657116, 34.101503195775],
        [-106.56309622336, -101.90025371895, 37.089845480931],
        [-106.68349164534, -102.13544124947, 40.078187766088],
        [-106.80388694812, -102.37062877999, 43.066530051244],
        [-106.9242823701, -102.6058163105, 46.0548723364],
        [-107.04467773247, -102.84100431786, 49.043214621556],
        [-107.16507309485, -103.07619184838, 52.031556906713],
        [-107.28546845723, -103.31137937889, 55.019899191869],
        [-107.40586387921, -103.54656714783, 58.008241477025],
        [-107.52625924159, -103.78175491677, 60.996583762181],
        [-107.64665460396, -104.01694244728, 63.984926047338],
        [-107.76704998124, -104.25213021622, 66.973268332494],
        [-107.88744536597, -104.48731774674, 69.96161061765],
        [-108.00784074325, -104.72250551567, 72.949952902806],
        [-108.12823611308, -104.95769304619, 75.938295187963],
        [-108.24863150526, -105.19288081513, 78.926637473119],
        [-108.36902686763, -105.42806846485, 81.91498738767],
        [-108.48942225981, -105.66325611458, 84.903329672826],
        [-108.60981762219, -105.89844376431, 87.891671957982],
        [-108.73021298457, -106.13363153324, 90.880014243138],
        [-108.85060840655, -106.36881912337, 93.868356528295],
        [-108.97100370932, -106.6040068327, 96.856698813451],
        [-109.0913991313, -106.83919448242, 99.845041098607],
        [-109.21179455329, -107.07438216195, 102.83338338376],
        [-109.33218985606, -107.30956981727, 105.82172566892],
        [-109.45258527804, -107.54475747631, 108.81006795408]
],
      "InstanceCreationTime": ["163804.500000", "163804.438000", "163804.502000", "163804.441000", "163804.504000", "163804.444000", "163804.507000", "163804.447000", "163804.509000", "163804.453000", "163804.511000", "163804.456000", "163804.515000", "163804.459000", "163804.518000", "163804.461000", "163804.520000", "163804.464000", "163804.522000", "163804.466000", "163804.527000", "163804.469000", "163804.542000", "163804.472000", "163804.544000", "163804.474000", "163804.547000", "163804.476000", "163804.549000", "163804.480000", "163804.557000", "163804.488000", "163804.559000", "163804.493000", "163804.561000", "163804.496000", "163804.563000", "163804.498000"],
      "InstanceNumber": [1, 2, 3, 4, 5, 6, 7, 8, 9, 10, 11, 12, 13, 14, 15, 16, 17, 18, 19, 20, 21, 22, 23, 24, 25, 26, 27, 28, 29, 30, 31, 32, 33, 34, 35, 36, 37, 38],
      "LargestImagePixelValue": [4093, 4091, 4085, 4093, 4092, 4094, 4092, 4094, 4093, 4083, 4063, 4092, 4089, 4090, 4087, 4091, 4084, 4084, 4095, 4077, 4091, 4090, 4093, 4090, 4093, 4093, 4088, 4091, 4093, 4091, 4095, 4086, 4091, 4094, 4094, 4092, 4087, 4094],
      "SliceLocation": [10.210849857879, 13.210849573543, 16.210849204874, 19.210848845774, 22.210850386611, 25.21085002751, 28.210849705792, 31.210849346692, 34.210848982807, 37.210848618923, 40.210848297204, 43.210847938104, 46.210851374094, 49.210851052375, 52.210850693275, 55.210850329391, 58.21084997029, 61.21084964618, 64.210849284688, 67.210848923195, 70.210848582786, 73.210848239985, 76.210847878492, 79.210847536289, 82.210847175693, 85.21084683349, 88.210846472297, 91.210846130691, 94.210853378293, 97.210853027342, 100.2108526752, 103.21085233239, 106.21085197797, 109.2108516281, 112.21085127835, 115.21085093093, 118.21085057683, 121.2108502278],
      "SmallestImagePixelValue": [2, 7, 0, 0, 0, 1, 3, 2, 12, 7, 2, 4, 4, 2, 3, 4, 38, 23, 7, 15, 2, 11, 1, 0, 3, 0, 6, 7, 0, 9, 0, 3, 1, 0, 3, 0, 0, 0],
      "WindowCenter": [-328.0, -282.0, -244.0, -194.0, -194.0, -172.0, -204.0, -196.0, -180.0, -152.0, -180.0, -202.0, -170.0, -192.0, -182.0, -138.0, -136.0, -106.0, -98.0, -222.0, -256.0, -240.0, -264.0, -242.0, -266.0, -246.0, -266.0, -284.0, -302.0, -292.0, -318.0, -320.0, -350.0, -244.0, -316.0, -276.0, -186.0, -106.0],
      "WindowWidth": [6070.0, 6134.0, 6178.0, 6080.0, 5920.0, 5800.0, 5778.0, 5758.0, 5674.0, 5684.0, 5650.0, 5566.0, 5682.0, 5626.0, 5620.0, 5552.0, 5478.0, 5286.0, 5284.0, 4566.0, 4588.0, 4552.0, 4586.0, 4538.0, 4562.0, 4534.0, 4554.0, 4580.0, 4622.0, 4624.0, 4676.0, 4698.0, 4760.0, 5522.0, 5710.0, 6050.0, 6282.0, 6358.0]
    }
  }
}