{
  "AcquisitionMatrixPE": 72,
  "AcquisitionNumber": 1,
  "AcquisitionTime": "15:49:51.647500",
  "BaseResolution": 72,
  "BodyPartExamined": "BRAIN",
  "CoilCombinationMethod": "Sum of Squares",
  "ConsistencyInfo": "N4_VE11C_LATEST_20160120",
  "ConversionSoftware": "dcm2niix",
  "ConversionSoftwareVersion": "v1.0.20220720",
  "DeviceSerialNumber": "45219",
  "DwellTime": 2.39e-05,
  "EchoNumber": 2,
  "EchoTime": 0.00738,
  "EchoTime1": 0.00492,
  "EchoTime2": 0.00738,
  "FlipAngle": 60,
  "HeudiconvVersion": "1.1.6",
  "ImageOrientationPatientDICOM": [0.99923, -0.0119638, 0.0373601, 0.00872015, 0.996273, 0.0858088],
  "ImageOrientationText": "Tra>Cor(4.9)>Sag(2.2)",
  "ImageType": [
    "ORIGINAL",
    "PRIMARY",
    "P",
    "ND",
    "PHASE"
],
  "ImagingFrequency": 123.182,
  "InPlanePhaseEncodingDirectionDICOM": "ROW",
  "InstitutionAddress": "First Avenue 660,New York,NYC,US,10016",
  "InstitutionName": "NYU LANGONE CBI",
  "InstitutionalDepartmentName": "Department",
  "MRAcquisitionType": "2D",
  "MagneticFieldStrength": 3,
  "Manufacturer": "Siemens",
  "ManufacturersModelName": "Skyra",
  "MatrixCoilMode": "SENSE",
  "Modality": "MR",
  "MultibandAccelerationFactor": 2,
  "NonlinearGradientCorrection": false,
  "PartialFourier": 1,
  "PatientPosition": "HFS",
  "PercentPhaseFOV": 100,
  "PercentSampling": 100,
  "PhaseEncodingDirection": "i",
  "PhaseEncodingSteps": 72,
  "PhaseResolution": 1,
  "PixelBandwidth": 290,
  "ProcedureStepDescription": "MRI BRAIN WITHOUT IV CONTRAST",
  "ProtocolName": "gre_fm_bold",
  "PulseSequenceDetails": "%SiemensSeq%\\gre_field_mapping",
  "ReceiveCoilActiveElements": "HE1-4",
  "ReceiveCoilName": "HeadNeck_20",
  "ReconMatrixPE": 72,
  "RepetitionTime": 0.444,
  "SAR": 0.16928,
  "ScanningSequence": "GR",
  "SequenceName": "*fm2d2r",
  "SequenceVariant": "SP",
  "SeriesDescription": "gre_fm_bold",
  "SeriesNumber": 5,
  "ShimSetting": [-822, -6944, 5042, 206, -68, 480, 509, -189],
  "SliceThickness": 3,
  "SliceTiming": [0.21875, 0, 0.23438, 0.01562, 0.25, 0.03125, 0.26562, 0.03125, 0.26562, 0.04688, 0.28125, 0.0625, 0.29688, 0.07812, 0.3125, 0.07812, 0.3125, 0.09375, 0.32812, 0.10938, 0.34375, 0.125, 0.35938, 0.125, 0.35938, 0.14062, 0.375, 0.15625, 0.39062, 0.17188, 0.40625, 0.17188, 0.40625, 0.1875, 0.42188, 0.20312, 0.4375, 0.21875],
  "SoftwareVersions": "syngo MR E11",
  "SpacingBetweenSlices": 3,
  "StationName": "MRC45219",
  "TxRefAmp": 402.191,
  "dcmmeta_affine": [
    [-2.9976906776428223, 0.026160448789596558, 0.11474251747131348, 106.46006774902344],
    [0.035891544073820114, 2.9888203144073486, 0.25625085830688477, -108.5068359375],
    [0.1120803952217102, -0.25742629170417786, 2.9868316650390625, -35.041751861572266],
    [0.0, 0.0, 0.0, 1.0]
],
  "dcmmeta_reorient_transform": [
    [0.0, -1.0, 0.0, 71.0],
    [1.0, 0.0, 0.0, 0.0],
    [0.0, 0.0, -1.0, 37.0],
    [0.0, 0.0, 0.0, 1.0]
],
  "dcmmeta_shape": [72, 72, 38],
  "dcmmeta_slice_dim": 2,
  "dcmmeta_version": 0.6,
  "global": {
    "const": {
      "AccessionNumber": "17355688",
      "AcquisitionMatrix": [0, 72, 72, 0],
      "AcquisitionNumber": 1,
      "AngioFlag": "N",
      "BitsAllocated": 16,
      "BitsStored": 12,
      "BodyPartExamined": "BRAIN",
      "Columns": 72,
      "CountryOfResidence": "United States of America [1]",
      "EchoNumbers": 2,
      "EchoTime": 7.38,
      "EchoTrainLength": 0,
      "FlipAngle": 60.0,
      "HighBit": 11,
      "ImageOrientationPatient": [0.99923024719446, -0.0119638476632, 0.037360131702, 0.00872014976083, 0.9962734643539, 0.08580875953208],
      "ImageType": [
        "ORIGINAL",
        "PRIMARY",
        "P",
        "ND"
],
      "ImagedNucleus": "1H",
      "ImagingFrequency": 123.182063,
      "InPlanePhaseEncodingDirection": "ROW",
      "MRAcquisitionType": "2D",
      "MagneticFieldStrength": 3.0,
      "Manufacturer": "SIEMENS",
      "ManufacturerModelName": "Skyra",
      "Modality": "MR",
      "NumberOfAverages": 1.0,
      "NumberOfPhaseEncodingSteps": 72,
      "PercentPhaseFieldOfView": 100.0,
      "PercentSampling": 100.0,
      "PerformedProcedureStepStartTime": "154228.653000",
      "PhotometricInterpretation": "MONOCHROME2",
      "PixelBandwidth": 290.0,
      "PixelRepresentation": 0,
      "PixelSpacing": [3.0, 3.0],
      "PregnancyStatus": 4,
      "ProcedureCodeSequence": [
        {
          "CodeMeaning": "MRI BRAIN WITHOUT IV CONTRAST",
          "CodeValue": "IMG269",
          "CodingSchemeDesignator": "L"
        }
],
      "ProtocolName": "gre_fm_bold",
      "RepetitionTime": 444.0,
      "RequestAttributesSequence": [
        {
          "RequestedProcedureID": "320142780",
          "ScheduledProcedureStepDescription": "MRI BRAIN WITHOUT IV CONTRAST",
          "ScheduledProcedureStepID": "E9429891",
          "ScheduledProtocolCodeSequence": [
            {
              "CodeMeaning": "MRI BRAIN WITHOUT IV CONTRAST",
              "CodeValue": "651061",
              "CodingSchemeDesignator": "L"
            }
]
        }
],
      "RequestedProcedureCodeSequence": [
        {
          "CodeMeaning": "MRI BRAIN WITHOUT IV CONTRAST",
          "CodeValue": "IMG269",
          "CodingSchemeDesignator": "L"
        }
],
      "RescaleIntercept": -4096.0,
      "RescaleSlope": 2.0,
      "RescaleType": "US",
      "Rows": 72,
      "SAR": 0.16928019397749,
      "SamplesPerPixel": 1,
      "ScanningSequence": "GR",
      "SequenceName": "*fm2d2r",
      "SequenceVariant": "SP",
      "SeriesDescription": "gre_fm_bold",
      "SeriesNumber": 5,
      "SeriesTime": "155055.456000",
      "SliceThickness": 3.0,
      "SmokingStatus": "UNKNOWN",
      "SoftwareVersions": "syngo MR E11",
      "SpacingBetweenSlices": 3.0,
      "SpecificCharacterSet": "ISO_IR 100",
      "StudyID": "320142780",
      "StudyTime": "154228.513000",
      "TransmitCoilName": "Body",
      "VariableFlipAngleFlag": "N",
      "WindowCenterWidthExplanation": "Algo1",
      "dBdt": 0.0},
    "slices": {
      "AcquisitionTime": ["154951.647500", "154951.425000", "154951.657500", "154951.435000", "154951.670000", "154951.447500", "154951.682500", "154951.460000", "154951.692500", "154951.470000", "154951.705000", "154951.482500", "154951.717500", "154951.495000", "154951.727500", "154951.507500", "154951.740000", "154951.517500", "154951.752500", "154951.530000", "154951.762500", "154951.542500", "154951.775000", "154951.552500", "154951.787500", "154951.565000", "154951.797500", "154951.577500", "154951.810000", "154951.587500", "154951.822500", "154951.600000", "154951.832500", "154951.612500", "154951.845000", "154951.622500", "154951.857500", "154951.635000"],
      "ContentTime": ["155055.533000", "155055.459000", "155055.537000", "155055.461000", "155055.540000", "155055.469000", "155055.544000", "155055.471000", "155055.546000", "155055.474000", "155055.550000", "155055.476000", "155055.556000", "155055.479000", "155055.559000", "155055.481000", "155055.561000", "155055.483000", "155055.566000", "155055.486000", "155055.569000", "155055.492000", "155055.573000", "155055.495000", "155055.576000", "155055.497000", "155055.578000", "155055.507000", "155055.580000", "155055.511000", "155055.583000", "155055.515000", "155055.585000", "155055.520000", "155055.595000", "155055.523000", "155055.597000", "155055.530000"],
      "CsaImage.ICE_Dims": [
        "X_2_1_1_1_1_1_20_1_1_1_1_2470",
        "X_2_1_1_1_1_1_1_1_1_2_1_2470",
        "X_2_1_1_1_1_1_21_1_1_3_1_2470",
        "X_2_1_1_1_1_1_2_1_1_4_1_2470",
        "X_2_1_1_1_1_1_22_1_1_5_1_2470",
        "X_2_1_1_1_1_1_3_1_1_6_1_2470",
        "X_2_1_1_1_1_1_23_1_1_7_1_2470",
        "X_2_1_1_1_1_1_4_1_1_8_1_2470",
        "X_2_1_1_1_1_1_24_1_1_9_1_2470",
        "X_2_1_1_1_1_1_5_1_1_10_1_2470",
        "X_2_1_1_1_1_1_25_1_1_11_1_2470",
        "X_2_1_1_1_1_1_6_1_1_12_1_2470",
        "X_2_1_1_1_1_1_26_1_1_13_1_2470",
        "X_2_1_1_1_1_1_7_1_1_14_1_2470",
        "X_2_1_1_1_1_1_27_1_1_15_1_2470",
        "X_2_1_1_1_1_1_8_1_1_16_1_2470",
        "X_2_1_1_1_1_1_28_1_1_17_1_2470",
        "X_2_1_1_1_1_1_9_1_1_18_1_2470",
        "X_2_1_1_1_1_1_29_1_1_19_1_2470",
        "X_2_1_1_1_1_1_10_1_1_20_1_2470",
        "X_2_1_1_1_1_1_30_1_1_21_1_2470",
        "X_2_1_1_1_1_1_11_1_1_22_1_2470",
        "X_2_1_1_1_1_1_31_1_1_23_1_2470",
        "X_2_1_1_1_1_1_12_1_1_24_1_2470",
        "X_2_1_1_1_1_1_32_1_1_25_1_2470",
        "X_2_1_1_1_1_1_13_1_1_26_1_2470",
        "X_2_1_1_1_1_1_33_1_1_27_1_2470",
        "X_2_1_1_1_1_1_14_1_1_28_1_2470",
        "X_2_1_1_1_1_1_34_1_1_29_1_2470",
        "X_2_1_1_1_1_1_15_1_1_30_1_2470",
        "X_2_1_1_1_1_1_35_1_1_31_1_2470",
        "X_2_1_1_1_1_1_16_1_1_32_1_2470",
        "X_2_1_1_1_1_1_36_1_1_33_1_2470",
        "X_2_1_1_1_1_1_17_1_1_34_1_2470",
        "X_2_1_1_1_1_1_37_1_1_35_1_2470",
        "X_2_1_1_1_1_1_18_1_1_36_1_2470",
        "X_2_1_1_1_1_1_38_1_1_37_1_2470",
        "X_2_1_1_1_1_1_19_1_1_38_1_2470"
],
      "CsaImage.ProtocolSliceNumber": [0, 1, 2, 3, 4, 5, 6, 7, 8, 9, 10, 11, 12, 13, 14, 15, 16, 17, 18, 19, 20, 21, 22, 23, 24, 25, 26, 27, 28, 29, 30, 31, 32, 33, 34, 35, 36, 37],
      "CsaImage.SliceMeasurementDuration": [63047.5, 63047.5, 63047.5, 63050.0, 63047.5, 63047.5, 63047.5, 63047.5, 63047.5, 63050.0, 63047.5, 63047.5, 63047.5, 63047.5, 63047.5, 63047.5, 63047.5, 63047.5, 63047.5, 63047.5, 63047.5, 63047.5, 63047.5, 63047.5, 63047.5, 63047.5, 63050.0, 63047.5, 63047.5, 63047.5, 63047.5, 63047.5, 63050.0, 63047.5, 63047.5, 63047.5, 63047.5, 63047.5],
      "CsaImage.SlicePosition_PCS": [
        [-108.31745916, -103.69941315, -53.31905925],
        [-108.43220168, -103.955664, -50.33222377],
        [-108.54694423, -104.21191462, -47.34539211],
        [-108.66168677, -104.46816548, -44.35856044],
        [-108.77642931, -104.72441622, -41.37172687],
        [-108.89117185, -104.98066708, -38.38489521],
        [-109.00591439, -105.23691782, -35.39806163],
        [-109.12065693, -105.49316856, -32.41122997],
        [-109.23539948, -105.74941936, -29.4243964],
        [-109.350142, -106.00567012, -26.43756378],
        [-109.46488451, -106.26192089, -23.45073116],
        [-109.57962709, -106.51817166, -20.46389806],
        [-109.69436961, -106.77442243, -17.47706544],
        [-109.80911219, -107.03067317, -14.49023271],
        [-109.92385464, -107.28692397, -11.50340009],
        [-110.03859728, -107.54317471, -8.51656711],
        [-110.1533398, -107.79942557, -5.52973449],
        [-110.26808232, -108.05567631, -2.54290187],
        [-110.38282483, -108.31192716, 0.44393074],
        [-110.49756735, -108.56817778, 3.43076336],
        [-110.61230999, -108.82442864, 6.41759694],
        [-110.7270525, -109.08067926, 9.4044286],
        [-110.84179502, -109.33693012, 12.39126217],
        [-110.95653754, -109.59318098, 15.37809384],
        [-111.07128006, -109.8494316, 18.36492741],
        [-111.18602257, -110.10568246, 21.35175908],
        [-111.30076509, -110.36193332, 24.33859074],
        [-111.41550761, -110.61818417, 27.32542622],
        [-111.53025037, -110.87443456, 30.31225789],
        [-111.64499288, -111.13068541, 33.29908955],
        [-111.7597354, -111.38693627, 36.28592503],
        [-111.87447792, -111.64318713, 39.27275669],
        [-111.98922044, -111.89943799, 42.25958836],
        [-112.10396295, -112.15568837, 45.24642003],
        [-112.21870547, -112.41193923, 48.2332555],
        [-112.33344799, -112.66819009, 51.22008336],
        [-112.44819051, -112.92444094, 54.20692265],
        [-112.56293302, -113.1806918, 57.19375431]
],
      "CsaImage.TimeAfterStart": [0.67, 0.4475, 0.68, 0.46, 0.6925, 0.47, 0.705, 0.4825, 0.715, 0.495, 0.7275, 0.505, 0.74, 0.5175, 0.75, 0.53, 0.7625, 0.54, 0.775, 0.5525, 0.785, 0.565, 0.7975, 0.575, 0.81, 0.5875, 0.8225, 0.6, 0.8325, 0.61, 0.845, 0.6225, 0.8575, 0.635, 0.8675, 0.645, 0.88, 0.6575],
      "ImagePositionPatient": [
        [-108.31745916107, -103.69941314522, -53.319059253525],
        [-108.43220167854, -103.95566400352, -50.332223773788],
        [-108.54694422582, -104.21191462341, -47.345392108749],
        [-108.66168677309, -104.46816548172, -44.35856044371],
        [-108.77642931291, -104.72441622082, -41.371726871323],
        [-108.89117184901, -104.98066707912, -38.384895206284],
        [-109.00591438511, -105.23691781822, -35.398061633896],
        [-109.12065693238, -105.49316855732, -32.411229968857],
        [-109.23539947966, -105.74941935602, -29.424396396469],
        [-109.35014199713, -106.00567012492, -26.437563777756],
        [-109.4648845146, -106.2619208901, -23.450731159042],
        [-109.57962709168, -106.51817166272, -20.463898063492],
        [-109.69436960915, -106.77442243162, -17.477065444778],
        [-109.80911218622, -107.03067317072, -14.490232706856],
        [-109.92385464409, -107.28692396942, -11.503400088142],
        [-110.03859728077, -107.54317470852, -8.5165671118011],
        [-110.15333979824, -107.79942556682, -5.5297344930878],
        [-110.26808231571, -108.05567630592, -2.5429018743744],
        [-110.38282483318, -108.31192716423, 0.44393074433899],
        [-110.49756735066, -108.56817778412, 3.4307633630524],
        [-110.61230998734, -108.82442864242, 6.4175969354401],
        [-110.72705250481, -109.08067926231, 9.4044286004791],
        [-110.84179502228, -109.33693012062, 12.391262172867],
        [-110.95653753975, -109.59318097893, 15.378093837906],
        [-111.07128005722, -109.84943159881, 18.364927410294],
        [-111.18602257469, -110.10568245712, 21.351759075333],
        [-111.30076509216, -110.36193331543, 24.338590740372],
        [-111.41550760964, -110.61818417374, 27.325426220108],
        [-111.53025036553, -110.87443455521, 30.312257885147],
        [-111.644992883, -111.13068541351, 33.299089550186],
        [-111.75973540047, -111.38693627182, 36.285925029922],
        [-111.87447791794, -111.64318713013, 39.272756694962],
        [-111.98922043541, -111.89943798843, 42.259588360001],
        [-112.10396295288, -112.1556883699, 45.24642002504],
        [-112.21870547035, -112.41193922821, 48.233255504776],
        [-112.33344798782, -112.66819008652, 51.220083355118],
        [-112.4481905053, -112.92444094482, 54.206922649551],
        [-112.56293302277, -113.18069180313, 57.19375431459]
],
      "InstanceCreationTime": ["155055.533000", "155055.459000", "155055.537000", "155055.461000", "155055.540000", "155055.469000", "155055.544000", "155055.471000", "155055.546000", "155055.474000", "155055.550000", "155055.476000", "155055.556000", "155055.479000", "155055.559000", "155055.481000", "155055.561000", "155055.483000", "155055.566000", "155055.486000", "155055.569000", "155055.492000", "155055.573000", "155055.495000", "155055.576000", "155055.497000", "155055.578000", "155055.507000", "155055.580000", "155055.511000", "155055.583000", "155055.515000", "155055.585000", "155055.520000", "155055.595000", "155055.523000", "155055.597000", "155055.530000"],
      "InstanceNumber": [1, 2, 3, 4, 5, 6, 7, 8, 9, 10, 11, 12, 13, 14, 15, 16, 17, 18, 19, 20, 21, 22, 23, 24, 25, 26, 27, 28, 29, 30, 31, 32, 33, 34, 35, 36, 37, 38],
      "LargestImagePixelValue": [4093, 4091, 4092, 4094, 4091, 4093, 4093, 4095, 4090, 4082, 4094, 4088, 4094, 4093, 4083, 4095, 4095, 4085, 4093, 4095, 4092, 4086, 4086, 4085, 4095, 4083, 4095, 4089, 4092, 4093, 4092, 4095, 4094, 4093, 4084, 4094, 4094, 4094],
      "SliceLocation": [-40.084479047345, -37.084476292228, -34.084477354291, -31.084478395988, -28.084477549175, -25.0844785913, -22.08447774463, -19.08447879651, -16.084477944321, -13.084478045306, -10.08447814661, -7.0844777702532, -4.0844778712386, -1.0844778538038, 1.9155220454767, 4.9155223025633, 7.9155222092148, 10.915522105684, 13.915522012335, 16.915521898622, 19.915522759321, 22.915521696119, 25.915522552259, 28.915521509422, 31.915522345197, 34.91552130236, 37.915520259523, 40.91552301464, 43.915521940192, 46.915520897355, 49.915523652472, 52.915522609635, 55.915521566798, 58.915520483231, 61.915523238348, 64.915518397557, 67.915524950628, 70.915523907791],
      "SmallestImagePixelValue": [0, 0, 0, 3, 0, 0, 1, 2, 2, 0, 0, 3, 3, 0, 1, 9, 6, 12, 13, 4, 4, 2, 2, 1, 1, 9, 6, 0, 2, 0, 0, 5, 3, 0, 0, 0, 0, 1],
      "WindowCenter": [-310.0, -334.0, -322.0, -296.0, -308.0, -332.0, -350.0, -486.0, -514.0, -432.0, -358.0, -364.0, -262.0, -220.0, -278.0, -340.0, -204.0, -320.0, -318.0, -268.0, -260.0, -284.0, -284.0, -332.0, -356.0, -374.0, -350.0, -358.0, -384.0, -326.0, -348.0, -202.0, -202.0, -244.0, -202.0, -204.0, -274.0, -196.0],
      "WindowWidth": [6018.0, 5928.0, 5950.0, 5916.0, 5782.0, 5696.0, 5500.0, 4820.0, 4832.0, 4770.0, 4738.0, 4716.0, 5472.0, 5322.0, 5108.0, 4596.0, 5182.0, 4554.0, 4564.0, 4534.0, 4538.0, 4556.0, 4528.0, 4528.0, 4540.0, 4558.0, 4586.0, 4582.0, 4640.0, 4654.0, 4706.0, 5210.0, 5558.0, 5828.0, 6080.0, 6244.0, 6420.0, 6470.0]
    }
  }
}