{
  "AcquisitionMatrixPE": 72,
  "AcquisitionNumber": 1,
  "AcquisitionTime": "20:15:1.042500",
  "BandwidthPerPixelPhaseEncode": 24.366,
  "BaseResolution": 72,
  "BodyPartExamined": "BRAIN",
  "CoilCombinationMethod": "Sum of Squares",
  "ConsistencyInfo": "N4_VE11C_LATEST_20160120",
  "ConversionSoftware": "dcm2niix",
  "ConversionSoftwareVersion": "v1.0.20220720",
  "DerivedVendorReportedEchoSpacing": 0.000570011,
  "DeviceSerialNumber": "45219",
  "DwellTime": 3.5e-06,
  "EchoTime": 0.03,
  "EchoTrainLength": 72,
  "EffectiveEchoSpacing": 0.000570011,
  "FlipAngle": 80,
  "HeudiconvVersion": "1.1.6",
  "ImageOrientationPatientDICOM": [0.999931, 0.0113811, 0.00274573, -0.0104716, 0.974304, -0.224992],
  "ImageOrientationText": "Tra>Cor(-13.0)>Sag(0.3)",
  "ImageType": [
    "ORIGINAL",
    "PRIMARY",
    "M",
    "ND",
    "NORM",
    "MOSAIC"
],
  "ImagingFrequency": 123.182,
  "InPlanePhaseEncodingDirectionDICOM": "COL",
  "InstitutionAddress": "First Avenue 660,New York,NYC,US,10016",
  "InstitutionName": "NYU LANGONE CBI",
  "InstitutionalDepartmentName": "Department",
  "MRAcquisitionType": "2D",
  "MagneticFieldStrength": 3,
  "Manufacturer": "Siemens",
  "ManufacturersModelName": "Skyra",
  "MatrixCoilMode": "SENSE",
  "Modality": "MR",
  "NonlinearGradientCorrection": false,
  "PartialFourier": 1,
  "PatientPosition": "HFS",
  "PercentPhaseFOV": 100,
  "PercentSampling": 100,
  "PhaseEncodingDirection": "j-",
  "PhaseEncodingSteps": 72,
  "PhaseResolution": 1,
  "PixelBandwidth": 1985,
  "ProcedureStepDescription": "MRI BRAIN WITHOUT IV CONTRAST",
  "ProtocolName": "TASK_CD",
  "PulseSequenceDetails": "%SiemensSeq%\\ep2d_bold",
  "ReceiveCoilActiveElements": "HE1-4",
  "ReceiveCoilName": "HeadNeck_20",
  "ReconMatrixPE": 72,
  "RepetitionTime": 2.5,
  "SAR": 0.100176,
  "ScanOptions": "FS",
  "ScanningSequence": "EP",
  "SequenceName": "*epfid2d1_72",
  "SequenceVariant": "SK",
  "SeriesDescription": "TASK_CD",
  "SeriesNumber": 12,
  "ShimSetting": [-894, -6952, 5129, 388, -266, -49, 314, -75],
  "SliceThickness": 3,
  "SliceTiming": [1.24, 0, 1.305, 0.0675, 1.3725, 0.1325, 1.4375, 0.1975, 1.5025, 0.2625, 1.5675, 0.3275, 1.6325, 0.3925, 1.6975, 0.4575, 1.7625, 0.5225, 1.8275, 0.5875, 1.8925, 0.6525, 1.96, 0.72, 2.025, 0.785, 2.09, 0.85, 2.155, 0.915, 2.22, 0.98, 2.285, 1.045, 2.35, 1.11, 2.415, 1.175],
  "SoftwareVersions": "syngo MR E11",
  "SpacingBetweenSlices": 3,
  "StationName": "MRC45219",
  "TaskName": "cd",
  "TotalReadoutTime": 0.0404708,
  "TxRefAmp": 396.136,
  "dcmmeta_affine": [
    [-2.9997944831848145, -0.031414944678545, 0.015707524493336678, 110.57144927978516],
    [-0.03414343297481537, 2.922913074493408, -0.6748436093330383, -110.99484252929688],
    [0.008237183094024658, 0.674976110458374, 2.923070192337036, -46.76047134399414],
    [0.0, 0.0, 0.0, 1.0]
],
  "dcmmeta_reorient_transform": [
    [0.0, -1.0, 0.0, 71.0],
    [1.0, 0.0, 0.0, 0.0],
    [0.0, 0.0, 1.0, 0.0],
    [0.0, 0.0, 0.0, 1.0]
],
  "dcmmeta_shape": [72, 72, 38, 132],
  "dcmmeta_slice_dim": 2,
  "dcmmeta_version": 0.6,
  "global": {
    "const": {
      "AcquisitionMatrix": [72, 0, 0, 72],
      "AngioFlag": "N",
      "BitsAllocated": 16,
      "BitsStored": 12,
      "BodyPartExamined": "BRAIN",
      "Columns": 504,
      "CountryOfResidence": "United States of America [1]",
      "EchoNumbers": 1,
      "EchoTime": 30.0,
      "EchoTrainLength": 72,
      "FlipAngle": 80.0,
      "HighBit": 11,
      "ImageOrientationPatient": [0.99993146291964, 0.01138114415799, 0.00274572778138, -0.0104716487998, 0.97430432824137, -0.2249920455073],
      "ImagePositionPatient": [-749.51094858382, -735.25616475049, 145.17844683738],
      "ImageType": [
        "ORIGINAL",
        "PRIMARY",
        "M",
        "ND",
        "NORM",
        "MOSAIC"
],
      "ImagedNucleus": "1H",
      "ImagingFrequency": 123.181951,
      "InPlanePhaseEncodingDirection": "COL",
      "MRAcquisitionType": "2D",
      "MagneticFieldStrength": 3.0,
      "Manufacturer": "SIEMENS",
      "ManufacturerModelName": "Skyra",
      "Modality": "MR",
      "NumberOfAverages": 1.0,
      "NumberOfPhaseEncodingSteps": 72,
      "PercentPhaseFieldOfView": 100.0,
      "PercentSampling": 100.0,
      "PerformedProcedureStepStartTime": "194811.552000",
      "PhotometricInterpretation": "MONOCHROME2",
      "PixelBandwidth": 1985.0,
      "PixelRepresentation": 0,
      "PixelSpacing": [3.0, 3.0],
      "PregnancyStatus": 4,
      "ProcedureCodeSequence": [
        {
          "CodeMeaning": "MRI BRAIN WITHOUT IV CONTRAST",
          "CodeValue": "IMG269",
          "CodingSchemeDesignator": "L"
        }
],
      "ProtocolName": "TASK_CD",
      "RepetitionTime": 2500.0,
      "RequestAttributesSequence": [
        {
          "ScheduledProcedureStepDescription": "MRI BRAIN WITHOUT IV CONTRAST",
          "ScheduledProcedureStepID": "E9597465",
          "ScheduledProtocolCodeSequence": [
            {
              "CodeMeaning": "MRI BRAIN WITHOUT IV CONTRAST",
              "CodeValue": "651061",
              "CodingSchemeDesignator": "L"
            }
]
        }
],
      "RequestedProcedureCodeSequence": [
        {
          "CodeMeaning": "MRI BRAIN WITHOUT IV CONTRAST",
          "CodeValue": "IMG269",
          "CodingSchemeDesignator": "L"
        }
],
      "Rows": 504,
      "SAR": 0.10017644948335,
      "SamplesPerPixel": 1,
      "ScanOptions": "FS",
      "ScanningSequence": "EP",
      "SequenceName": "*epfid2d1_72",
      "SequenceVariant": "SK",
      "SeriesDescription": "TASK_CD",
      "SeriesNumber": 12,
      "SeriesTime": "201557.186000",
      "SliceLocation": -20.014392916575,
      "SliceThickness": 3.0,
      "SmallestImagePixelValue": 0,
      "SmokingStatus": "UNKNOWN",
      "SoftwareVersions": "syngo MR E11",
      "SpacingBetweenSlices": 2.9999999887129,
      "SpecificCharacterSet": "ISO_IR 100",
      "StudyTime": "194811.383000",
      "TransmitCoilName": "Body",
      "VariableFlipAngleFlag": "N",
      "WindowCenterWidthExplanation": "Algo1",
      "dBdt": 0.0},
    "slices": {}
  },
  "time": {
    "samples": {
      "AcquisitionNumber": [1, 2, 3, 4, 5, 6, 7, 8, 9, 10, 11, 12, 13, 14, 15, 16, 17, 18, 19, 20, 21, 22, 23, 24, 25, 26, 27, 28, 29, 30, 31, 32, 33, 34, 35, 36, 37, 38, 39, 40, 41, 42, 43, 44, 45, 46, 47, 48, 49, 50, 51, 52, 53, 54, 55, 56, 57, 58, 59, 60, 61, 62, 63, 64, 65, 66, 67, 68, 69, 70, 71, 72, 73, 74, 75, 76, 77, 78, 79, 80, 81, 82, 83, 84, 85, 86, 87, 88, 89, 90, 91, 92, 93, 94, 95, 96, 97, 98, 99, 100, 101, 102, 103, 104, 105, 106, 107, 108, 109, 110, 111, 112, 113, 114, 115, 116, 117, 118, 119, 120, 121, 122, 123, 124, 125, 126, 127, 128, 129, 130, 131, 132],
      "AcquisitionTime": ["201501.042500", "201503.542500", "201506.042500", "201508.542500", "201511.042500", "201513.542500", "201516.042500", "201518.542500", "201521.042500", "201523.542500", "201526.042500", "201528.542500", "201531.042500", "201533.542500", "201536.042500", "201538.542500", "201541.042500", "201543.542500", "201546.042500", "201548.542500", "201551.042500", "201553.542500", "201556.042500", "201558.542500", "201601.042500", "201603.542500", "201606.042500", "201608.542500", "201611.042500", "201613.542500", "201616.042500", "201618.542500", "201621.042500", "201623.542500", "201626.042500", "201628.542500", "201631.042500", "201633.542500", "201636.042500", "201638.542500", "201641.042500", "201643.542500", "201646.042500", "201648.542500", "201651.042500", "201653.542500", "201656.042500", "201658.542500", "201701.042500", "201703.542500", "201706.042500", "201708.542500", "201711.042500", "201713.542500", "201716.042500", "201718.542500", "201721.042500", "201723.542500", "201726.042500", "201728.542500", "201731.042500", "201733.542500", "201736.042500", "201738.542500", "201741.042500", "201743.542500", "201746.042500", "201748.542500", "201751.042500", "201753.542500", "201756.042500", "201758.542500", "201801.042500", "201803.542500", "201806.042500", "201808.542500", "201811.042500", "201813.542500", "201816.042500", "201818.542500", "201821.042500", "201823.542500", "201826.042500", "201828.542500", "201831.042500", "201833.542500", "201836.042500", "201838.542500", "201841.042500", "201843.542500", "201846.042500", "201848.542500", "201851.042500", "201853.542500", "201856.042500", "201858.542500", "201901.042500", "201903.542500", "201906.042500", "201908.542500", "201911.042500", "201913.542500", "201916.042500", "201918.542500", "201921.042500", "201923.542500", "201926.042500", "201928.542500", "201931.042500", "201933.542500", "201936.042500", "201938.542500", "201941.042500", "201943.542500", "201946.042500", "201948.542500", "201951.042500", "201953.542500", "201956.042500", "201958.542500", "202001.042500", "202003.542500", "202006.042500", "202008.542500", "202011.042500", "202013.542500", "202016.042500", "202018.542500", "202021.042500", "202023.542500", "202026.042500", "202028.542500"],
      "ContentTime": ["201557.190000", "201557.194000", "201557.196000", "201557.199000", "201557.202000", "201557.204000", "201557.207000", "201557.210000", "201557.212000", "201557.215000", "201557.217000", "201557.220000", "201557.223000", "201557.226000", "201557.228000", "201557.231000", "201557.234000", "201557.236000", "201557.239000", "201557.242000", "201557.244000", "201557.247000", "201657.185000", "201657.188000", "201657.190000", "201657.193000", "201657.196000", "201657.198000", "201657.201000", "201657.204000", "201657.206000", "201657.209000", "201657.212000", "201657.215000", "201657.217000", "201657.220000", "201657.223000", "201657.225000", "201657.228000", "201657.231000", "201657.233000", "201657.236000", "201657.239000", "201657.241000", "201657.244000", "201657.247000", "201757.185000", "201757.188000", "201757.190000", "201757.200000", "201757.202000", "201757.205000", "201757.208000", "201757.210000", "201757.213000", "201757.216000", "201757.218000", "201757.221000", "201757.224000", "201757.226000", "201757.229000", "201757.232000", "201757.234000", "201757.237000", "201757.240000", "201757.243000", "201757.245000", "201757.248000", "201757.251000", "201757.253000", "201817.185000", "201817.188000", "201817.190000", "201817.193000", "201817.196000", "201817.199000", "201817.201000", "201817.204000", "201917.185000", "201917.188000", "201917.190000", "201917.193000", "201917.196000", "201917.198000", "201917.201000", "201917.204000", "201917.206000", "201917.209000", "201917.212000", "201917.214000", "201917.217000", "201917.220000", "201917.222000", "201917.225000", "201917.228000", "201917.231000", "201917.233000", "201917.236000", "201917.238000", "201917.241000", "201917.244000", "201917.246000", "202017.185000", "202017.188000", "202017.190000", "202017.193000", "202017.196000", "202017.198000", "202017.201000", "202017.204000", "202017.206000", "202017.209000", "202017.212000", "202017.214000", "202017.217000", "202017.220000", "202017.223000", "202017.225000", "202017.228000", "202017.231000", "202017.233000", "202017.236000", "202017.239000", "202017.241000", "202017.244000", "202017.247000", "202030.564000", "202030.567000", "202030.585000", "202030.588000", "202030.591000", "202030.594000"],
      "InstanceCreationTime": ["201557.190000", "201557.194000", "201557.196000", "201557.199000", "201557.202000", "201557.204000", "201557.207000", "201557.210000", "201557.212000", "201557.215000", "201557.217000", "201557.220000", "201557.223000", "201557.226000", "201557.228000", "201557.231000", "201557.234000", "201557.236000", "201557.239000", "201557.242000", "201557.244000", "201557.247000", "201657.185000", "201657.188000", "201657.190000", "201657.193000", "201657.196000", "201657.198000", "201657.201000", "201657.204000", "201657.206000", "201657.209000", "201657.212000", "201657.215000", "201657.217000", "201657.220000", "201657.223000", "201657.225000", "201657.228000", "201657.231000", "201657.233000", "201657.236000", "201657.239000", "201657.241000", "201657.244000", "201657.247000", "201757.185000", "201757.188000", "201757.190000", "201757.200000", "201757.202000", "201757.205000", "201757.208000", "201757.210000", "201757.213000", "201757.216000", "201757.218000", "201757.221000", "201757.224000", "201757.226000", "201757.229000", "201757.232000", "201757.234000", "201757.237000", "201757.240000", "201757.243000", "201757.245000", "201757.248000", "201757.251000", "201757.253000", "201817.185000", "201817.188000", "201817.190000", "201817.193000", "201817.196000", "201817.199000", "201817.201000", "201817.204000", "201917.185000", "201917.188000", "201917.190000", "201917.193000", "201917.196000", "201917.198000", "201917.201000", "201917.204000", "201917.206000", "201917.209000", "201917.212000", "201917.214000", "201917.217000", "201917.220000", "201917.222000", "201917.225000", "201917.228000", "201917.231000", "201917.233000", "201917.236000", "201917.238000", "201917.241000", "201917.244000", "201917.246000", "202017.185000", "202017.188000", "202017.190000", "202017.193000", "202017.196000", "202017.198000", "202017.201000", "202017.204000", "202017.206000", "202017.209000", "202017.212000", "202017.214000", "202017.217000", "202017.220000", "202017.223000", "202017.225000", "202017.228000", "202017.231000", "202017.233000", "202017.236000", "202017.239000", "202017.241000", "202017.244000", "202017.247000", "202030.564000", "202030.567000", "202030.585000", "202030.588000", "202030.591000", "202030.594000"],
      "InstanceNumber": [1, 2, 3, 4, 5, 6, 7, 8, 9, 10, 11, 12, 13, 14, 15, 16, 17, 18, 19, 20, 21, 22, 23, 24, 25, 26, 27, 28, 29, 30, 31, 32, 33, 34, 35, 36, 37, 38, 39, 40, 41, 42, 43, 44, 45, 46, 47, 48, 49, 50, 51, 52, 53, 54, 55, 56, 57, 58, 59, 60, 61, 62, 63, 64, 65, 66, 67, 68, 69, 70, 71, 72, 73, 74, 75, 76, 77, 78, 79, 80, 81, 82, 83, 84, 85, 86, 87, 88, 89, 90, 91, 92, 93, 94, 95, 96, 97, 98, 99, 100, 101, 102, 103, 104, 105, 106, 107, 108, 109, 110, 111, 112, 113, 114, 115, 116, 117, 118, 119, 120, 121, 122, 123, 124, 125, 126, 127, 128, 129, 130, 131, 132],
      "LargestImagePixelValue": [1510, 1929, 1540, 1491, 1475, 1477, 1529, 1500, 1519, 1471, 1464, 1736, 1529, 1542, 1508, 1631, 1611, 1492, 1537, 1513, 1566, 1484, 1489, 1637, 1606, 1526, 1515, 1466, 1514, 1530, 1495, 1821, 1994, 1542, 1513, 1513, 1509, 1476, 1633, 1584, 1532, 1489, 1453, 1402, 1466, 1559, 1334, 1525, 1916, 1750, 1360, 1434, 1422, 1388, 1410, 1438, 1476, 1400, 1549, 1673, 1404, 1458, 1471, 1479, 1424, 1498, 1968, 1474, 1546, 1543, 1534, 1443, 1440, 1471, 1541, 1411, 1672, 1490, 1469, 1425, 1454, 2141, 1682, 1502, 1367, 1442, 1519, 1444, 1411, 1374, 1396, 1427, 1434, 1461, 1391, 1474, 1467, 1503, 1572, 2158, 1742, 1427, 1523, 1420, 1562, 1430, 1453, 1558, 1431, 1569, 1522, 1494, 1512, 1568, 1467, 1513, 1555, 1542, 1531, 1853, 1803, 1481, 1459, 1569, 1464, 1469, 1460, 1491, 1539, 1566, 1652, 1463],
      "WindowCenter": [611.0, 610.0, 607.0, 609.0, 609.0, 610.0, 609.0, 610.0, 610.0, 609.0, 609.0, 611.0, 607.0, 608.0, 609.0, 609.0, 610.0, 608.0, 609.0, 607.0, 609.0, 607.0, 607.0, 608.0, 608.0, 607.0, 606.0, 606.0, 608.0, 608.0, 609.0, 609.0, 608.0, 605.0, 607.0, 606.0, 606.0, 607.0, 608.0, 608.0, 608.0, 607.0, 604.0, 603.0, 606.0, 607.0, 574.0, 607.0, 606.0, 604.0, 602.0, 605.0, 605.0, 604.0, 605.0, 606.0, 606.0, 605.0, 601.0, 605.0, 604.0, 605.0, 605.0, 605.0, 605.0, 603.0, 606.0, 602.0, 606.0, 604.0, 602.0, 603.0, 604.0, 605.0, 604.0, 600.0, 603.0, 604.0, 603.0, 604.0, 606.0, 604.0, 602.0, 604.0, 603.0, 604.0, 604.0, 602.0, 602.0, 603.0, 604.0, 604.0, 603.0, 605.0, 604.0, 599.0, 604.0, 606.0, 606.0, 606.0, 602.0, 598.0, 607.0, 603.0, 606.0, 605.0, 606.0, 605.0, 604.0, 605.0, 606.0, 605.0, 603.0, 605.0, 605.0, 606.0, 607.0, 607.0, 606.0, 606.0, 604.0, 603.0, 603.0, 604.0, 603.0, 603.0, 604.0, 604.0, 605.0, 606.0, 606.0, 603.0],
      "WindowWidth": [1287.0, 1284.0, 1278.0, 1282.0, 1284.0, 1286.0, 1283.0, 1285.0, 1285.0, 1283.0, 1283.0, 1286.0, 1279.0, 1280.0, 1283.0, 1284.0, 1285.0, 1281.0, 1284.0, 1279.0, 1283.0, 1279.0, 1280.0, 1280.0, 1280.0, 1279.0, 1278.0, 1276.0, 1282.0, 1282.0, 1283.0, 1282.0, 1281.0, 1275.0, 1280.0, 1276.0, 1276.0, 1278.0, 1280.0, 1281.0, 1282.0, 1279.0, 1272.0, 1270.0, 1277.0, 1279.0, 1207.0, 1280.0, 1276.0, 1271.0, 1268.0, 1274.0, 1274.0, 1274.0, 1274.0, 1276.0, 1276.0, 1275.0, 1265.0, 1274.0, 1274.0, 1275.0, 1274.0, 1276.0, 1276.0, 1269.0, 1275.0, 1268.0, 1276.0, 1273.0, 1269.0, 1269.0, 1273.0, 1274.0, 1271.0, 1264.0, 1270.0, 1272.0, 1270.0, 1272.0, 1276.0, 1272.0, 1267.0, 1272.0, 1271.0, 1273.0, 1272.0, 1269.0, 1268.0, 1270.0, 1272.0, 1273.0, 1270.0, 1275.0, 1273.0, 1261.0, 1273.0, 1276.0, 1277.0, 1277.0, 1266.0, 1259.0, 1279.0, 1271.0, 1277.0, 1275.0, 1276.0, 1274.0, 1273.0, 1276.0, 1277.0, 1274.0, 1270.0, 1274.0, 1275.0, 1278.0, 1278.0, 1278.0, 1277.0, 1277.0, 1272.0, 1270.0, 1271.0, 1273.0, 1271.0, 1271.0, 1272.0, 1273.0, 1274.0, 1276.0, 1276.0, 1270.0]
    },
    "slices": {}
  }
}