{
  "AcquisitionMatrixPE": 72,
  "AcquisitionNumber": 1,
  "AcquisitionTime": "20:02:41.312500",
  "BandwidthPerPixelPhaseEncode": 24.366,
  "BaseResolution": 72,
  "BodyPartExamined": "BRAIN",
  "CoilCombinationMethod": "Sum of Squares",
  "ConsistencyInfo": "N4_VE11C_LATEST_20160120",
  "ConversionSoftware": "dcm2niix",
  "ConversionSoftwareVersion": "v1.0.20220720",
  "DerivedVendorReportedEchoSpacing": 0.000570011,
  "DeviceSerialNumber": "45219",
  "DwellTime": 3.5e-06,
  "EchoTime": 0.03,
  "EchoTrainLength": 72,
  "EffectiveEchoSpacing": 0.000570011,
  "FlipAngle": 80,
  "HeudiconvVersion": "1.1.6",
  "ImageComments": "Reference volume for motion correction.",
  "ImageOrientationPatientDICOM": [0.999931, 0.0113811, 0.00274573, -0.0104716, 0.974304, -0.224992],
  "ImageOrientationText": "Tra>Cor(-13.0)>Sag(0.3)",
  "ImageType": [
    "ORIGINAL",
    "PRIMARY",
    "M",
    "ND",
    "NORM",
    "MOCO",
    "MOSAIC"
],
  "ImagingFrequency": 123.182,
  "InPlanePhaseEncodingDirectionDICOM": "COL",
  "InstitutionAddress": "First Avenue 660,New York,NYC,US,10016",
  "InstitutionName": "NYU LANGONE CBI",
  "InstitutionalDepartmentName": "Department",
  "MRAcquisitionType": "2D",
  "MagneticFieldStrength": 3,
  "Manufacturer": "Siemens",
  "ManufacturersModelName": "Skyra",
  "MatrixCoilMode": "SENSE",
  "Modality": "MR",
  "NonlinearGradientCorrection": false,
  "PartialFourier": 1,
  "PatientPosition": "HFS",
  "PercentPhaseFOV": 100,
  "PercentSampling": 100,
  "PhaseEncodingDirection": "j-",
  "PhaseEncodingSteps": 72,
  "PhaseResolution": 1,
  "PixelBandwidth": 1985,
  "ProcedureStepDescription": "MRI BRAIN WITHOUT IV CONTRAST",
  "ProtocolName": "REST_2_MoCo",
  "PulseSequenceDetails": "%SiemensSeq%\\ep2d_bold",
  "ReceiveCoilActiveElements": "HE1-4",
  "ReceiveCoilName": "HeadNeck_20",
  "ReconMatrixPE": 72,
  "RepetitionTime": 2.5,
  "SAR": 0.10014,
  "ScanOptions": "FS",
  "ScanningSequence": "EP",
  "SequenceName": "*epfid2d1_72",
  "SequenceVariant": "SK",
  "SeriesDescription": "MoCoSeries",
  "SeriesNumber": 9,
  "ShimSetting": [-894, -6952, 5129, 388, -266, -49, 314, -75],
  "SliceThickness": 3,
  "SliceTiming": [1.24, 0, 1.3075, 0.0675, 1.3725, 0.1325, 1.4375, 0.1975, 1.5025, 0.2625, 1.5675, 0.3275, 1.6325, 0.3925, 1.6975, 0.4575, 1.7625, 0.5225, 1.8275, 0.5875, 1.8925, 0.6525, 1.96, 0.72, 2.025, 0.785, 2.09, 0.85, 2.155, 0.915, 2.22, 0.98, 2.285, 1.045, 2.35, 1.11, 2.415, 1.175],
  "SoftwareVersions": "syngo MR E11",
  "SpacingBetweenSlices": 3,
  "StationName": "MRC45219",
  "TaskName": "rest",
  "TotalReadoutTime": 0.0404708,
  "TxRefAmp": 396.136,
  "dcmmeta_affine": [
    [-2.9997944831848145, -0.031414944678545, 0.015707524493336678, 110.57144927978516],
    [-0.03414343297481537, 2.922913074493408, -0.6748436093330383, -110.99484252929688],
    [0.008237183094024658, 0.674976110458374, 2.923070192337036, -46.76047134399414],
    [0.0, 0.0, 0.0, 1.0]
],
  "dcmmeta_reorient_transform": [
    [0.0, -1.0, 0.0, 71.0],
    [1.0, 0.0, 0.0, 0.0],
    [0.0, 0.0, 1.0, 0.0],
    [0.0, 0.0, 0.0, 1.0]
],
  "dcmmeta_shape": [72, 72, 38, 122],
  "dcmmeta_slice_dim": 2,
  "dcmmeta_version": 0.6,
  "global": {
    "const": {
      "AcquisitionMatrix": [72, 0, 0, 72],
      "AngioFlag": "N",
      "BitsAllocated": 16,
      "BitsStored": 12,
      "BodyPartExamined": "BRAIN",
      "Columns": 504,
      "CountryOfResidence": "United States of America [1]",
      "EchoNumbers": 1,
      "EchoTime": 30.0,
      "EchoTrainLength": 72,
      "FlipAngle": 80.0,
      "HighBit": 11,
      "ImageOrientationPatient": [0.99993146291964, 0.01138114415799, 0.00274572778138, -0.0104716487998, 0.97430432824137, -0.2249920455073],
      "ImagePositionPatient": [-749.51094858382, -735.25616475049, 145.17844683738],
      "ImageType": [
        "ORIGINAL",
        "PRIMARY",
        "M",
        "ND",
        "NORM",
        "MOCO",
        "MOSAIC"
],
      "ImagedNucleus": "1H",
      "ImagingFrequency": 123.181889,
      "InPlanePhaseEncodingDirection": "COL",
      "MRAcquisitionType": "2D",
      "MagneticFieldStrength": 3.0,
      "Manufacturer": "SIEMENS",
      "ManufacturerModelName": "Skyra",
      "Modality": "MR",
      "NumberOfAverages": 1.0,
      "NumberOfPhaseEncodingSteps": 72,
      "PercentPhaseFieldOfView": 100.0,
      "PercentSampling": 100.0,
      "PerformedProcedureStepStartTime": "194811.552000",
      "PhotometricInterpretation": "MONOCHROME2",
      "PixelBandwidth": 1985.0,
      "PixelRepresentation": 0,
      "PixelSpacing": [3.0, 3.0],
      "PregnancyStatus": 4,
      "ProcedureCodeSequence": [
        {
          "CodeMeaning": "MRI BRAIN WITHOUT IV CONTRAST",
          "CodeValue": "IMG269",
          "CodingSchemeDesignator": "L"
        }
],
      "ProtocolName": "REST_2",
      "RepetitionTime": 2500.0,
      "RequestAttributesSequence": [
        {
          "ScheduledProcedureStepDescription": "MRI BRAIN WITHOUT IV CONTRAST",
          "ScheduledProcedureStepID": "E9597465",
          "ScheduledProtocolCodeSequence": [
            {
              "CodeMeaning": "MRI BRAIN WITHOUT IV CONTRAST",
              "CodeValue": "651061",
              "CodingSchemeDesignator": "L"
            }
]
        }
],
      "RequestedProcedureCodeSequence": [
        {
          "CodeMeaning": "MRI BRAIN WITHOUT IV CONTRAST",
          "CodeValue": "IMG269",
          "CodingSchemeDesignator": "L"
        }
],
      "Rows": 504,
      "SAR": 0.10014044969349,
      "SamplesPerPixel": 1,
      "ScanOptions": "FS",
      "ScanningSequence": "EP",
      "SequenceName": "*epfid2d1_72",
      "SequenceVariant": "SK",
      "SeriesDescription": "MoCoSeries",
      "SeriesNumber": 9,
      "SeriesTime": "200334.731000",
      "SliceLocation": -20.014392916575,
      "SliceThickness": 3.0,
      "SmallestImagePixelValue": 0,
      "SmokingStatus": "UNKNOWN",
      "SoftwareVersions": "syngo MR E11",
      "SpacingBetweenSlices": 2.9999999887129,
      "SpecificCharacterSet": "ISO_IR 100",
      "StudyTime": "194811.383000",
      "TransmitCoilName": "Body",
      "VariableFlipAngleFlag": "N",
      "WindowCenterWidthExplanation": "Algo1",
      "dBdt": 0.0},
    "slices": {}
  },
  "time": {
    "samples": {
      "AcquisitionNumber": [1, 2, 3, 4, 5, 6, 7, 8, 9, 10, 11, 12, 13, 14, 15, 16, 17, 18, 19, 20, 21, 22, 23, 24, 25, 26, 27, 28, 29, 30, 31, 32, 33, 34, 35, 36, 37, 38, 39, 40, 41, 42, 43, 44, 45, 46, 47, 48, 49, 50, 51, 52, 53, 54, 55, 56, 57, 58, 59, 60, 61, 62, 63, 64, 65, 66, 67, 68, 69, 70, 71, 72, 73, 74, 75, 76, 77, 78, 79, 80, 81, 82, 83, 84, 85, 86, 87, 88, 89, 90, 91, 92, 93, 94, 95, 96, 97, 98, 99, 100, 101, 102, 103, 104, 105, 106, 107, 108, 109, 110, 111, 112, 113, 114, 115, 116, 117, 118, 119, 120, 121, 122],
      "AcquisitionTime": ["200241.312500", "200243.812500", "200246.312500", "200248.812500", "200251.312500", "200253.812500", "200256.312500", "200258.812500", "200301.312500", "200303.812500", "200306.312500", "200308.812500", "200311.312500", "200313.812500", "200316.312500", "200318.812500", "200321.312500", "200323.812500", "200326.312500", "200328.812500", "200331.312500", "200333.812500", "200336.312500", "200338.812500", "200341.312500", "200343.812500", "200346.312500", "200348.812500", "200351.312500", "200353.812500", "200356.312500", "200358.812500", "200401.312500", "200403.812500", "200406.312500", "200408.812500", "200411.312500", "200413.812500", "200416.312500", "200418.812500", "200421.312500", "200423.812500", "200426.312500", "200428.812500", "200431.312500", "200433.812500", "200436.312500", "200438.812500", "200441.312500", "200443.812500", "200446.312500", "200448.812500", "200451.312500", "200453.812500", "200456.312500", "200458.812500", "200501.312500", "200503.812500", "200506.312500", "200508.812500", "200511.312500", "200513.812500", "200516.312500", "200518.812500", "200521.312500", "200523.812500", "200526.312500", "200528.812500", "200531.312500", "200533.812500", "200536.312500", "200538.812500", "200541.312500", "200543.812500", "200546.312500", "200548.812500", "200551.312500", "200553.812500", "200556.312500", "200558.812500", "200601.312500", "200603.812500", "200606.312500", "200608.812500", "200611.312500", "200613.812500", "200616.312500", "200618.812500", "200621.312500", "200623.812500", "200626.312500", "200628.812500", "200631.312500", "200633.812500", "200636.312500", "200638.812500", "200641.312500", "200643.812500", "200646.312500", "200648.812500", "200651.312500", "200653.812500", "200656.312500", "200658.812500", "200701.312500", "200703.812500", "200706.312500", "200708.812500", "200711.312500", "200713.812500", "200716.312500", "200718.812500", "200721.312500", "200723.812500", "200726.312500", "200728.812500", "200731.312500", "200733.812500", "200736.312500", "200738.812500", "200741.312500", "200743.812500"],
      "ContentTime": ["200334.733000", "200334.736000", "200334.746000", "200334.749000", "200334.752000", "200334.755000", "200334.758000", "200334.760000", "200334.763000", "200334.766000", "200334.768000", "200334.771000", "200334.774000", "200334.777000", "200334.779000", "200334.782000", "200334.785000", "200334.788000", "200334.790000", "200334.793000", "200334.796000", "200434.730000", "200434.732000", "200434.735000", "200434.738000", "200434.740000", "200434.743000", "200434.746000", "200434.749000", "200434.752000", "200434.755000", "200434.757000", "200434.760000", "200434.763000", "200434.766000", "200434.768000", "200434.771000", "200434.784000", "200434.787000", "200434.790000", "200434.793000", "200434.795000", "200434.798000", "200434.801000", "200434.804000", "200534.748000", "200534.751000", "200534.753000", "200534.756000", "200534.759000", "200534.762000", "200534.764000", "200534.767000", "200534.770000", "200534.773000", "200534.775000", "200534.778000", "200534.781000", "200534.784000", "200534.786000", "200534.789000", "200534.792000", "200534.795000", "200534.797000", "200534.800000", "200534.803000", "200534.806000", "200534.808000", "200534.811000", "200634.744000", "200634.747000", "200634.751000", "200634.754000", "200634.757000", "200634.761000", "200634.764000", "200634.767000", "200634.770000", "200634.773000", "200634.776000", "200634.780000", "200634.783000", "200634.786000", "200634.790000", "200634.792000", "200634.795000", "200634.799000", "200634.802000", "200634.805000", "200634.809000", "200634.812000", "200634.815000", "200634.819000", "200734.739000", "200734.742000", "200734.745000", "200734.747000", "200734.750000", "200734.753000", "200734.756000", "200734.759000", "200734.761000", "200734.764000", "200734.767000", "200734.770000", "200734.772000", "200734.775000", "200734.778000", "200734.781000", "200734.783000", "200734.786000", "200734.789000", "200734.792000", "200734.794000", "200734.797000", "200734.800000", "200734.803000", "200746.596000", "200746.600000", "200746.603000", "200746.606000", "200746.609000"],
      "InstanceCreationTime": ["200334.733000", "200334.736000", "200334.746000", "200334.749000", "200334.752000", "200334.755000", "200334.758000", "200334.760000", "200334.763000", "200334.766000", "200334.768000", "200334.771000", "200334.774000", "200334.777000", "200334.779000", "200334.782000", "200334.785000", "200334.788000", "200334.790000", "200334.793000", "200334.796000", "200434.730000", "200434.732000", "200434.735000", "200434.738000", "200434.740000", "200434.743000", "200434.746000", "200434.749000", "200434.752000", "200434.755000", "200434.757000", "200434.760000", "200434.763000", "200434.766000", "200434.768000", "200434.771000", "200434.784000", "200434.787000", "200434.790000", "200434.793000", "200434.795000", "200434.798000", "200434.801000", "200434.804000", "200534.748000", "200534.751000", "200534.753000", "200534.756000", "200534.759000", "200534.762000", "200534.764000", "200534.767000", "200534.770000", "200534.773000", "200534.775000", "200534.778000", "200534.781000", "200534.784000", "200534.786000", "200534.789000", "200534.792000", "200534.795000", "200534.797000", "200534.800000", "200534.803000", "200534.806000", "200534.808000", "200534.811000", "200634.744000", "200634.747000", "200634.751000", "200634.754000", "200634.757000", "200634.761000", "200634.764000", "200634.767000", "200634.770000", "200634.773000", "200634.776000", "200634.780000", "200634.783000", "200634.786000", "200634.790000", "200634.792000", "200634.795000", "200634.799000", "200634.802000", "200634.805000", "200634.809000", "200634.812000", "200634.815000", "200634.819000", "200734.739000", "200734.742000", "200734.745000", "200734.747000", "200734.750000", "200734.753000", "200734.756000", "200734.759000", "200734.761000", "200734.764000", "200734.767000", "200734.770000", "200734.772000", "200734.775000", "200734.778000", "200734.781000", "200734.783000", "200734.786000", "200734.789000", "200734.792000", "200734.794000", "200734.797000", "200734.800000", "200734.803000", "200746.596000", "200746.600000", "200746.603000", "200746.606000", "200746.609000"],
      "InstanceNumber": [1, 2, 3, 4, 5, 6, 7, 8, 9, 10, 11, 12, 13, 14, 15, 16, 17, 18, 19, 20, 21, 22, 23, 24, 25, 26, 27, 28, 29, 30, 31, 32, 33, 34, 35, 36, 37, 38, 39, 40, 41, 42, 43, 44, 45, 46, 47, 48, 49, 50, 51, 52, 53, 54, 55, 56, 57, 58, 59, 60, 61, 62, 63, 64, 65, 66, 67, 68, 69, 70, 71, 72, 73, 74, 75, 76, 77, 78, 79, 80, 81, 82, 83, 84, 85, 86, 87, 88, 89, 90, 91, 92, 93, 94, 95, 96, 97, 98, 99, 100, 101, 102, 103, 104, 105, 106, 107, 108, 109, 110, 111, 112, 113, 114, 115, 116, 117, 118, 119, 120, 121, 122],
      "LargestImagePixelValue": [1745, 2048, 2191, 1662, 2326, 2658, 1585, 1583, 2506, 2063, 2356, 2200, 2622, 1997, 2877, 2552, 2110, 1668, 1834, 1609, 1512, 1543, 1415, 1492, 1633, 1503, 1593, 1537, 1464, 1620, 1792, 2045, 1862, 1599, 1616, 2058, 2048, 1494, 1627, 1719, 1520, 1474, 1699, 1625, 1554, 1664, 1658, 1501, 1959, 2240, 1630, 1533, 1561, 1573, 1504, 1525, 1880, 1470, 1512, 1821, 2321, 1693, 1535, 1561, 1439, 1511, 1557, 1637, 1540, 1623, 1677, 1682, 1595, 1483, 1548, 1477, 1508, 1503, 1896, 2091, 1518, 1522, 1522, 1498, 1558, 1516, 1598, 2641, 2247, 2460, 1593, 1830, 1562, 1598, 1751, 2068, 1785, 1566, 1655, 2007, 1477, 1588, 1811, 2012, 1874, 2403, 1651, 1602, 2205, 2895, 1835, 1492, 1493, 1769, 2299, 2077, 1512, 1898, 1523, 2367, 1798, 1577],
      "WindowCenter": [617.0, 616.0, 617.0, 615.0, 617.0, 618.0, 614.0, 616.0, 619.0, 616.0, 617.0, 618.0, 619.0, 616.0, 618.0, 617.0, 600.0, 616.0, 616.0, 614.0, 615.0, 614.0, 613.0, 614.0, 614.0, 614.0, 616.0, 615.0, 613.0, 617.0, 616.0, 617.0, 615.0, 614.0, 614.0, 616.0, 615.0, 613.0, 615.0, 614.0, 614.0, 614.0, 616.0, 615.0, 613.0, 616.0, 616.0, 614.0, 616.0, 616.0, 614.0, 614.0, 615.0, 614.0, 615.0, 616.0, 616.0, 614.0, 615.0, 617.0, 617.0, 614.0, 613.0, 614.0, 613.0, 615.0, 616.0, 616.0, 615.0, 616.0, 617.0, 616.0, 614.0, 614.0, 615.0, 614.0, 615.0, 616.0, 616.0, 616.0, 614.0, 614.0, 614.0, 614.0, 616.0, 615.0, 612.0, 617.0, 615.0, 617.0, 613.0, 616.0, 614.0, 614.0, 615.0, 616.0, 614.0, 613.0, 614.0, 614.0, 612.0, 614.0, 616.0, 616.0, 617.0, 617.0, 613.0, 615.0, 617.0, 613.0, 610.0, 610.0, 610.0, 611.0, 613.0, 613.0, 613.0, 616.0, 615.0, 619.0, 617.0, 616.0],
      "WindowWidth": [1299.0, 1298.0, 1298.0, 1296.0, 1300.0, 1300.0, 1294.0, 1298.0, 1304.0, 1297.0, 1298.0, 1301.0, 1303.0, 1297.0, 1300.0, 1298.0, 1262.0, 1297.0, 1297.0, 1294.0, 1296.0, 1295.0, 1291.0, 1293.0, 1294.0, 1293.0, 1297.0, 1295.0, 1292.0, 1300.0, 1297.0, 1298.0, 1296.0, 1293.0, 1293.0, 1297.0, 1295.0, 1291.0, 1295.0, 1293.0, 1294.0, 1294.0, 1297.0, 1295.0, 1292.0, 1297.0, 1297.0, 1294.0, 1296.0, 1297.0, 1294.0, 1293.0, 1295.0, 1293.0, 1295.0, 1297.0, 1298.0, 1293.0, 1295.0, 1299.0, 1299.0, 1293.0, 1291.0, 1292.0, 1291.0, 1295.0, 1297.0, 1297.0, 1294.0, 1297.0, 1299.0, 1297.0, 1294.0, 1295.0, 1295.0, 1294.0, 1295.0, 1297.0, 1297.0, 1296.0, 1293.0, 1294.0, 1294.0, 1294.0, 1298.0, 1295.0, 1288.0, 1299.0, 1295.0, 1298.0, 1291.0, 1298.0, 1293.0, 1293.0, 1295.0, 1297.0, 1293.0, 1291.0, 1293.0, 1294.0, 1290.0, 1293.0, 1297.0, 1297.0, 1299.0, 1299.0, 1291.0, 1294.0, 1300.0, 1289.0, 1285.0, 1285.0, 1284.0, 1286.0, 1291.0, 1290.0, 1291.0, 1298.0, 1297.0, 1303.0, 1300.0, 1297.0]
    },
    "slices": {}
  }
}