{
  "AcquisitionMatrixPE": 72,
  "AcquisitionNumber": 1,
  "AcquisitionTime": "19:57:5.405000",
  "BandwidthPerPixelPhaseEncode": 24.366,
  "BaseResolution": 72,
  "BodyPartExamined": "BRAIN",
  "CoilCombinationMethod": "Sum of Squares",
  "ConsistencyInfo": "N4_VE11C_LATEST_20160120",
  "ConversionSoftware": "dcm2niix",
  "ConversionSoftwareVersion": "v1.0.20220720",
  "DerivedVendorReportedEchoSpacing": 0.000570011,
  "DeviceSerialNumber": "45219",
  "DwellTime": 3.5e-06,
  "EchoTime": 0.03,
  "EchoTrainLength": 72,
  "EffectiveEchoSpacing": 0.000570011,
  "FlipAngle": 80,
  "HeudiconvVersion": "1.1.6",
  "ImageOrientationPatientDICOM": [0.999931, 0.0113811, 0.00274573, -0.0104716, 0.974304, -0.224992],
  "ImageOrientationText": "Tra>Cor(-13.0)>Sag(0.3)",
  "ImageType": [
    "ORIGINAL",
    "PRIMARY",
    "M",
    "ND",
    "NORM",
    "MOSAIC"
],
  "ImagingFrequency": 123.182,
  "InPlanePhaseEncodingDirectionDICOM": "COL",
  "InstitutionAddress": "First Avenue 660,New York,NYC,US,10016",
  "InstitutionName": "NYU LANGONE CBI",
  "InstitutionalDepartmentName": "Department",
  "MRAcquisitionType": "2D",
  "MagneticFieldStrength": 3,
  "Manufacturer": "Siemens",
  "ManufacturersModelName": "Skyra",
  "MatrixCoilMode": "SENSE",
  "Modality": "MR",
  "NonlinearGradientCorrection": false,
  "PartialFourier": 1,
  "PatientPosition": "HFS",
  "PercentPhaseFOV": 100,
  "PercentSampling": 100,
  "PhaseEncodingDirection": "j-",
  "PhaseEncodingSteps": 72,
  "PhaseResolution": 1,
  "PixelBandwidth": 1985,
  "ProcedureStepDescription": "MRI BRAIN WITHOUT IV CONTRAST",
  "ProtocolName": "REST_1",
  "PulseSequenceDetails": "%SiemensSeq%\\ep2d_bold",
  "ReceiveCoilActiveElements": "HE1-4",
  "ReceiveCoilName": "HeadNeck_20",
  "ReconMatrixPE": 72,
  "RepetitionTime": 2.5,
  "SAR": 0.10014,
  "ScanOptions": "FS",
  "ScanningSequence": "EP",
  "SequenceName": "*epfid2d1_72",
  "SequenceVariant": "SK",
  "SeriesDescription": "REST_1",
  "SeriesNumber": 6,
  "ShimSetting": [-894, -6952, 5129, 388, -266, -49, 314, -75],
  "SliceThickness": 3,
  "SliceTiming": [1.24, 0, 1.305, 0.065, 1.37, 0.13, 1.435, 0.195, 1.5025, 0.2625, 1.5675, 0.3275, 1.6325, 0.3925, 1.6975, 0.4575, 1.7625, 0.5225, 1.8275, 0.5875, 1.8925, 0.6525, 1.9575, 0.7175, 2.0225, 0.7825, 2.0875, 0.8475, 2.155, 0.915, 2.22, 0.98, 2.285, 1.045, 2.35, 1.11, 2.415, 1.175],
  "SoftwareVersions": "syngo MR E11",
  "SpacingBetweenSlices": 3,
  "StationName": "MRC45219",
  "TaskName": "rest",
  "TotalReadoutTime": 0.0404708,
  "TxRefAmp": 396.136,
  "dcmmeta_affine": [
    [-2.9997944831848145, -0.031414944678545, 0.015707524493336678, 110.57144927978516],
    [-0.03414343297481537, 2.922913074493408, -0.6748436093330383, -110.99484252929688],
    [0.008237183094024658, 0.674976110458374, 2.923070192337036, -46.76047134399414],
    [0.0, 0.0, 0.0, 1.0]
],
  "dcmmeta_reorient_transform": [
    [0.0, -1.0, 0.0, 71.0],
    [1.0, 0.0, 0.0, 0.0],
    [0.0, 0.0, 1.0, 0.0],
    [0.0, 0.0, 0.0, 1.0]
],
  "dcmmeta_shape": [72, 72, 38, 122],
  "dcmmeta_slice_dim": 2,
  "dcmmeta_version": 0.6,
  "global": {
    "const": {
      "AcquisitionMatrix": [72, 0, 0, 72],
      "AngioFlag": "N",
      "BitsAllocated": 16,
      "BitsStored": 12,
      "BodyPartExamined": "BRAIN",
      "Columns": 504,
      "CountryOfResidence": "United States of America [1]",
      "EchoNumbers": 1,
      "EchoTime": 30.0,
      "EchoTrainLength": 72,
      "FlipAngle": 80.0,
      "HighBit": 11,
      "ImageOrientationPatient": [0.99993146291964, 0.01138114415799, 0.00274572778138, -0.0104716487998, 0.97430432824137, -0.2249920455073],
      "ImagePositionPatient": [-749.51094858382, -735.25616475049, 145.17844683738],
      "ImageType": [
        "ORIGINAL",
        "PRIMARY",
        "M",
        "ND",
        "NORM",
        "MOSAIC"
],
      "ImagedNucleus": "1H",
      "ImagingFrequency": 123.181864,
      "InPlanePhaseEncodingDirection": "COL",
      "MRAcquisitionType": "2D",
      "MagneticFieldStrength": 3.0,
      "Manufacturer": "SIEMENS",
      "ManufacturerModelName": "Skyra",
      "Modality": "MR",
      "NumberOfAverages": 1.0,
      "NumberOfPhaseEncodingSteps": 72,
      "PercentPhaseFieldOfView": 100.0,
      "PercentSampling": 100.0,
      "PerformedProcedureStepStartTime": "194811.552000",
      "PhotometricInterpretation": "MONOCHROME2",
      "PixelBandwidth": 1985.0,
      "PixelRepresentation": 0,
      "PixelSpacing": [3.0, 3.0],
      "PregnancyStatus": 4,
      "ProcedureCodeSequence": [
        {
          "CodeMeaning": "MRI BRAIN WITHOUT IV CONTRAST",
          "CodeValue": "IMG269",
          "CodingSchemeDesignator": "L"
        }
],
      "ProtocolName": "REST_1",
      "RepetitionTime": 2500.0,
      "RequestAttributesSequence": [
        {
          "ScheduledProcedureStepDescription": "MRI BRAIN WITHOUT IV CONTRAST",
          "ScheduledProcedureStepID": "E9597465",
          "ScheduledProtocolCodeSequence": [
            {
              "CodeMeaning": "MRI BRAIN WITHOUT IV CONTRAST",
              "CodeValue": "651061",
              "CodingSchemeDesignator": "L"
            }
]
        }
],
      "RequestedProcedureCodeSequence": [
        {
          "CodeMeaning": "MRI BRAIN WITHOUT IV CONTRAST",
          "CodeValue": "IMG269",
          "CodingSchemeDesignator": "L"
        }
],
      "Rows": 504,
      "SAR": 0.10014044969349,
      "SamplesPerPixel": 1,
      "ScanOptions": "FS",
      "ScanningSequence": "EP",
      "SequenceName": "*epfid2d1_72",
      "SequenceVariant": "SK",
      "SeriesDescription": "REST_1",
      "SeriesNumber": 6,
      "SeriesTime": "195757.186000",
      "SliceLocation": -20.014392916575,
      "SliceThickness": 3.0,
      "SmallestImagePixelValue": 0,
      "SmokingStatus": "UNKNOWN",
      "SoftwareVersions": "syngo MR E11",
      "SpacingBetweenSlices": 2.9999999887129,
      "SpecificCharacterSet": "ISO_IR 100",
      "StudyTime": "194811.383000",
      "TransmitCoilName": "Body",
      "VariableFlipAngleFlag": "N",
      "WindowCenterWidthExplanation": "Algo1",
      "dBdt": 0.0},
    "slices": {}
  },
  "time": {
    "samples": {
      "AcquisitionNumber": [1, 2, 3, 4, 5, 6, 7, 8, 9, 10, 11, 12, 13, 14, 15, 16, 17, 18, 19, 20, 21, 22, 23, 24, 25, 26, 27, 28, 29, 30, 31, 32, 33, 34, 35, 36, 37, 38, 39, 40, 41, 42, 43, 44, 45, 46, 47, 48, 49, 50, 51, 52, 53, 54, 55, 56, 57, 58, 59, 60, 61, 62, 63, 64, 65, 66, 67, 68, 69, 70, 71, 72, 73, 74, 75, 76, 77, 78, 79, 80, 81, 82, 83, 84, 85, 86, 87, 88, 89, 90, 91, 92, 93, 94, 95, 96, 97, 98, 99, 100, 101, 102, 103, 104, 105, 106, 107, 108, 109, 110, 111, 112, 113, 114, 115, 116, 117, 118, 119, 120, 121, 122],
      "AcquisitionTime": ["195705.405000", "195707.905000", "195710.405000", "195712.905000", "195715.405000", "195717.905000", "195720.405000", "195722.905000", "195725.405000", "195727.905000", "195730.405000", "195732.905000", "195735.405000", "195737.905000", "195740.405000", "195742.905000", "195745.405000", "195747.905000", "195750.405000", "195752.905000", "195755.405000", "195757.905000", "195800.405000", "195802.905000", "195805.405000", "195807.905000", "195810.405000", "195812.905000", "195815.405000", "195817.905000", "195820.405000", "195822.905000", "195825.405000", "195827.905000", "195830.405000", "195832.905000", "195835.405000", "195837.905000", "195840.405000", "195842.905000", "195845.405000", "195847.905000", "195850.405000", "195852.905000", "195855.405000", "195857.905000", "195900.405000", "195902.905000", "195905.405000", "195907.905000", "195910.405000", "195912.905000", "195915.405000", "195917.905000", "195920.405000", "195922.905000", "195925.405000", "195927.905000", "195930.405000", "195932.905000", "195935.405000", "195937.905000", "195940.405000", "195942.905000", "195945.405000", "195947.905000", "195950.405000", "195952.905000", "195955.405000", "195957.905000", "200000.405000", "200002.905000", "200005.405000", "200007.905000", "200010.405000", "200012.905000", "200015.405000", "200017.905000", "200020.405000", "200022.905000", "200025.405000", "200027.905000", "200030.405000", "200032.905000", "200035.405000", "200037.905000", "200040.405000", "200042.905000", "200045.405000", "200047.905000", "200050.405000", "200052.905000", "200055.405000", "200057.905000", "200100.405000", "200102.905000", "200105.405000", "200107.905000", "200110.405000", "200112.905000", "200115.405000", "200117.905000", "200120.405000", "200122.905000", "200125.405000", "200127.905000", "200130.405000", "200132.905000", "200135.405000", "200137.905000", "200140.405000", "200142.905000", "200145.405000", "200147.905000", "200150.405000", "200152.905000", "200155.405000", "200157.905000", "200200.405000", "200202.905000", "200205.405000", "200207.905000"],
      "ContentTime": ["195757.190000", "195757.194000", "195757.196000", "195757.199000", "195757.202000", "195757.211000", "195757.214000", "195757.217000", "195757.220000", "195757.223000", "195757.225000", "195757.228000", "195757.231000", "195757.233000", "195757.236000", "195757.239000", "195757.241000", "195757.244000", "195757.247000", "195757.249000", "195817.185000", "195817.188000", "195817.190000", "195817.193000", "195817.196000", "195817.198000", "195817.201000", "195817.204000", "195917.185000", "195917.188000", "195917.191000", "195917.193000", "195917.196000", "195917.198000", "195917.201000", "195917.204000", "195917.207000", "195917.209000", "195917.212000", "195917.215000", "195917.217000", "195917.220000", "195917.223000", "195917.226000", "195917.228000", "195917.231000", "195917.234000", "195917.236000", "195917.239000", "195917.242000", "195917.245000", "195917.247000", "200017.185000", "200017.188000", "200017.190000", "200017.193000", "200017.196000", "200017.198000", "200017.201000", "200017.204000", "200017.207000", "200017.209000", "200017.212000", "200017.215000", "200017.217000", "200017.220000", "200017.223000", "200017.225000", "200017.228000", "200017.231000", "200017.233000", "200017.236000", "200017.239000", "200017.241000", "200017.244000", "200017.247000", "200117.185000", "200117.188000", "200117.190000", "200117.193000", "200117.196000", "200117.199000", "200117.202000", "200117.204000", "200117.207000", "200117.209000", "200117.212000", "200117.215000", "200117.218000", "200117.220000", "200117.223000", "200117.226000", "200117.229000", "200117.231000", "200117.234000", "200117.237000", "200117.239000", "200117.242000", "200117.245000", "200117.247000", "200210.217000", "200210.220000", "200210.222000", "200210.225000", "200210.228000", "200210.231000", "200210.233000", "200210.236000", "200210.239000", "200210.241000", "200210.244000", "200210.248000", "200210.252000", "200210.256000", "200210.259000", "200210.264000", "200210.268000", "200210.271000", "200210.277000", "200210.280000", "200210.283000", "200210.286000"],
      "InstanceCreationTime": ["195757.190000", "195757.194000", "195757.196000", "195757.199000", "195757.202000", "195757.211000", "195757.214000", "195757.217000", "195757.220000", "195757.223000", "195757.225000", "195757.228000", "195757.231000", "195757.233000", "195757.236000", "195757.239000", "195757.241000", "195757.244000", "195757.247000", "195757.249000", "195817.185000", "195817.188000", "195817.190000", "195817.193000", "195817.196000", "195817.198000", "195817.201000", "195817.204000", "195917.185000", "195917.188000", "195917.191000", "195917.193000", "195917.196000", "195917.198000", "195917.201000", "195917.204000", "195917.207000", "195917.209000", "195917.212000", "195917.215000", "195917.217000", "195917.220000", "195917.223000", "195917.226000", "195917.228000", "195917.231000", "195917.234000", "195917.236000", "195917.239000", "195917.242000", "195917.245000", "195917.247000", "200017.185000", "200017.188000", "200017.190000", "200017.193000", "200017.196000", "200017.198000", "200017.201000", "200017.204000", "200017.207000", "200017.209000", "200017.212000", "200017.215000", "200017.217000", "200017.220000", "200017.223000", "200017.225000", "200017.228000", "200017.231000", "200017.233000", "200017.236000", "200017.239000", "200017.241000", "200017.244000", "200017.247000", "200117.185000", "200117.188000", "200117.190000", "200117.193000", "200117.196000", "200117.199000", "200117.202000", "200117.204000", "200117.207000", "200117.209000", "200117.212000", "200117.215000", "200117.218000", "200117.220000", "200117.223000", "200117.226000", "200117.229000", "200117.231000", "200117.234000", "200117.237000", "200117.239000", "200117.242000", "200117.245000", "200117.247000", "200210.217000", "200210.220000", "200210.222000", "200210.225000", "200210.228000", "200210.231000", "200210.233000", "200210.236000", "200210.239000", "200210.241000", "200210.244000", "200210.248000", "200210.252000", "200210.256000", "200210.259000", "200210.264000", "200210.268000", "200210.271000", "200210.277000", "200210.280000", "200210.283000", "200210.286000"],
      "InstanceNumber": [1, 2, 3, 4, 5, 6, 7, 8, 9, 10, 11, 12, 13, 14, 15, 16, 17, 18, 19, 20, 21, 22, 23, 24, 25, 26, 27, 28, 29, 30, 31, 32, 33, 34, 35, 36, 37, 38, 39, 40, 41, 42, 43, 44, 45, 46, 47, 48, 49, 50, 51, 52, 53, 54, 55, 56, 57, 58, 59, 60, 61, 62, 63, 64, 65, 66, 67, 68, 69, 70, 71, 72, 73, 74, 75, 76, 77, 78, 79, 80, 81, 82, 83, 84, 85, 86, 87, 88, 89, 90, 91, 92, 93, 94, 95, 96, 97, 98, 99, 100, 101, 102, 103, 104, 105, 106, 107, 108, 109, 110, 111, 112, 113, 114, 115, 116, 117, 118, 119, 120, 121, 122],
      "LargestImagePixelValue": [2085, 2429, 1681, 1478, 2407, 2573, 2051, 2224, 2377, 1973, 2374, 2089, 1615, 2023, 2161, 2322, 2139, 1482, 1815, 2303, 2423, 2086, 2298, 2486, 2336, 1661, 1920, 2298, 2417, 1523, 1640, 2133, 2459, 2191, 1773, 2321, 2058, 1677, 1893, 1902, 1634, 1919, 2486, 2226, 2020, 2394, 2417, 2196, 1498, 1816, 2442, 1673, 1479, 1731, 2394, 2434, 2108, 1541, 1813, 2530, 2476, 1512, 1570, 2581, 1665, 1509, 2453, 1658, 1794, 2250, 2450, 1862, 2555, 2734, 1831, 1509, 1713, 1929, 2242, 1998, 1491, 2037, 1740, 1751, 1478, 2247, 2092, 1597, 1892, 2374, 2190, 1917, 2427, 2685, 2705, 1850, 1540, 1941, 2261, 2059, 1551, 2253, 2357, 1905, 2042, 2193, 1738, 1547, 2186, 2484, 2413, 1883, 1941, 2490, 2269, 1465, 2060, 2000, 2264, 1652, 1783, 2418],
      "WindowCenter": [621.0, 618.0, 614.0, 615.0, 619.0, 618.0, 616.0, 618.0, 619.0, 617.0, 617.0, 617.0, 615.0, 616.0, 616.0, 618.0, 618.0, 614.0, 616.0, 618.0, 618.0, 616.0, 617.0, 618.0, 617.0, 614.0, 616.0, 618.0, 618.0, 614.0, 615.0, 618.0, 618.0, 617.0, 616.0, 617.0, 616.0, 615.0, 616.0, 616.0, 616.0, 617.0, 619.0, 618.0, 617.0, 618.0, 618.0, 618.0, 614.0, 616.0, 616.0, 614.0, 613.0, 615.0, 618.0, 617.0, 617.0, 614.0, 615.0, 617.0, 617.0, 615.0, 616.0, 618.0, 613.0, 613.0, 617.0, 614.0, 612.0, 617.0, 617.0, 616.0, 618.0, 615.0, 616.0, 612.0, 611.0, 611.0, 612.0, 613.0, 614.0, 617.0, 617.0, 618.0, 617.0, 619.0, 617.0, 616.0, 618.0, 619.0, 618.0, 617.0, 619.0, 619.0, 618.0, 616.0, 614.0, 616.0, 617.0, 616.0, 614.0, 617.0, 617.0, 616.0, 617.0, 617.0, 617.0, 616.0, 618.0, 618.0, 617.0, 615.0, 616.0, 618.0, 617.0, 614.0, 616.0, 616.0, 616.0, 615.0, 616.0, 617.0],
      "WindowWidth": [1308.0, 1302.0, 1293.0, 1295.0, 1303.0, 1301.0, 1297.0, 1301.0, 1303.0, 1298.0, 1299.0, 1299.0, 1296.0, 1297.0, 1297.0, 1301.0, 1301.0, 1294.0, 1297.0, 1301.0, 1301.0, 1298.0, 1299.0, 1301.0, 1300.0, 1293.0, 1297.0, 1301.0, 1301.0, 1293.0, 1295.0, 1300.0, 1301.0, 1299.0, 1296.0, 1298.0, 1297.0, 1295.0, 1297.0, 1297.0, 1296.0, 1300.0, 1304.0, 1301.0, 1300.0, 1302.0, 1301.0, 1300.0, 1293.0, 1297.0, 1297.0, 1292.0, 1291.0, 1295.0, 1301.0, 1299.0, 1299.0, 1294.0, 1296.0, 1298.0, 1298.0, 1295.0, 1298.0, 1300.0, 1292.0, 1291.0, 1298.0, 1293.0, 1289.0, 1299.0, 1299.0, 1297.0, 1301.0, 1295.0, 1298.0, 1290.0, 1286.0, 1285.0, 1287.0, 1289.0, 1293.0, 1300.0, 1299.0, 1301.0, 1300.0, 1304.0, 1300.0, 1297.0, 1301.0, 1303.0, 1301.0, 1299.0, 1304.0, 1303.0, 1301.0, 1298.0, 1293.0, 1296.0, 1299.0, 1298.0, 1293.0, 1298.0, 1300.0, 1297.0, 1298.0, 1299.0, 1300.0, 1298.0, 1302.0, 1302.0, 1300.0, 1296.0, 1298.0, 1300.0, 1298.0, 1293.0, 1297.0, 1297.0, 1297.0, 1296.0, 1297.0, 1298.0]
    },
    "slices": {}
  }
}