{
  "AcquisitionMatrixPE": 72,
  "AcquisitionNumber": 1,
  "AcquisitionTime": "20:45:38.745000",
  "BaseResolution": 72,
  "BodyPartExamined": "BRAIN",
  "CoilCombinationMethod": "Sum of Squares",
  "ConsistencyInfo": "N4_VE11C_LATEST_20160120",
  "ConversionSoftware": "dcm2niix",
  "ConversionSoftwareVersion": "v1.0.20220720",
  "DeviceSerialNumber": "45219",
  "DwellTime": 2.39e-05,
  "EchoNumber": 2,
  "EchoTime": 0.00738,
  "EchoTime1": 0.00492,
  "EchoTime2": 0.00738,
  "FlipAngle": 60,
  "HeudiconvVersion": "1.1.6",
  "ImageOrientationPatientDICOM": [0.997588, 0.0380117, -0.0580877, -0.0296077, 0.989816, 0.139243],
  "ImageOrientationText": "Tra>Cor(7.9)>Sag(-3.6)",
  "ImageType": [
    "ORIGINAL",
    "PRIMARY",
    "P",
    "ND",
    "PHASE"
],
  "ImagingFrequency": 123.182,
  "InPlanePhaseEncodingDirectionDICOM": "ROW",
  "InstitutionAddress": "First Avenue 660,New York,NYC,US,10016",
  "InstitutionName": "NYU LANGONE CBI",
  "InstitutionalDepartmentName": "Department",
  "MRAcquisitionType": "2D",
  "MagneticFieldStrength": 3,
  "Manufacturer": "Siemens",
  "ManufacturersModelName": "Skyra",
  "MatrixCoilMode": "SENSE",
  "Modality": "MR",
  "MultibandAccelerationFactor": 2,
  "NonlinearGradientCorrection": false,
  "PartialFourier": 1,
  "PatientPosition": "HFS",
  "PercentPhaseFOV": 100,
  "PercentSampling": 100,
  "PhaseEncodingDirection": "i",
  "PhaseEncodingSteps": 72,
  "PhaseResolution": 1,
  "PixelBandwidth": 290,
  "ProcedureStepDescription": "MRI BRAIN WITHOUT IV CONTRAST",
  "ProtocolName": "gre_fm_bold",
  "PulseSequenceDetails": "%SiemensSeq%\\gre_field_mapping",
  "ReceiveCoilActiveElements": "HE1-4",
  "ReceiveCoilName": "HeadNeck_20",
  "ReconMatrixPE": 72,
  "RepetitionTime": 0.444,
  "SAR": 0.227861,
  "ScanningSequence": "GR",
  "SequenceName": "*fm2d2r",
  "SequenceVariant": "SP",
  "SeriesDescription": "gre_fm_bold",
  "SeriesNumber": 5,
  "ShimSetting": [-888, -7051, 5287, 593, -276, 326, 224, -53],
  "SliceThickness": 3,
  "SliceTiming": [0.23438, 0, 0.23438, 0.01562, 0.25, 0.03125, 0.26562, 0.04688, 0.28125, 0.04688, 0.28125, 0.0625, 0.29688, 0.07812, 0.3125, 0.09375, 0.32812, 0.09375, 0.32812, 0.10938, 0.34375, 0.125, 0.35938, 0.14062, 0.375, 0.14062, 0.375, 0.15625, 0.39062, 0.17188, 0.40625, 0.1875, 0.42188, 0.1875, 0.42188, 0.20312, 0.4375, 0.21875],
  "SoftwareVersions": "syngo MR E11",
  "SpacingBetweenSlices": 3,
  "StationName": "MRC45219",
  "TxRefAmp": 423.167,
  "dcmmeta_affine": [
    [-2.992762565612793, -0.0888231173157692, -0.18836688995361328, 107.90094757080078],
    [-0.11403510719537735, 2.9694466590881348, 0.41156089305877686, -112.67993927001953],
    [-0.17426317930221558, -0.4177282154560089, 2.9656600952148438, 16.06357192993164],
    [0.0, 0.0, 0.0, 1.0]
],
  "dcmmeta_reorient_transform": [
    [0.0, -1.0, 0.0, 71.0],
    [1.0, 0.0, 0.0, 0.0],
    [0.0, 0.0, -1.0, 37.0],
    [0.0, 0.0, 0.0, 1.0]
],
  "dcmmeta_shape": [72, 72, 38],
  "dcmmeta_slice_dim": 2,
  "dcmmeta_version": 0.6,
  "global": {
    "const": {
      "AcquisitionMatrix": [0, 72, 72, 0],
      "AcquisitionNumber": 1,
      "AngioFlag": "N",
      "BitsAllocated": 16,
      "BitsStored": 12,
      "BodyPartExamined": "BRAIN",
      "Columns": 72,
      "CountryOfResidence": "United States of America [1]",
      "EchoNumbers": 2,
      "EchoTime": 7.38,
      "EchoTrainLength": 0,
      "FlipAngle": 60.0,
      "HighBit": 11,
      "ImageOrientationPatient": [0.9975875534725, 0.03801170161581, -0.0580877241508, -0.0296077067326, 0.98981555982996, 0.1392427420749],
      "ImageType": [
        "ORIGINAL",
        "PRIMARY",
        "P",
        "ND"
],
      "ImagedNucleus": "1H",
      "ImagingFrequency": 123.181769,
      "InPlanePhaseEncodingDirection": "ROW",
      "MRAcquisitionType": "2D",
      "MagneticFieldStrength": 3.0,
      "Manufacturer": "SIEMENS",
      "ManufacturerModelName": "Skyra",
      "Modality": "MR",
      "NumberOfAverages": 1.0,
      "NumberOfPhaseEncodingSteps": 72,
      "PercentPhaseFieldOfView": 100.0,
      "PercentSampling": 100.0,
      "PerformedProcedureStepStartTime": "203716.050000",
      "PhotometricInterpretation": "MONOCHROME2",
      "PixelBandwidth": 290.0,
      "PixelRepresentation": 0,
      "PixelSpacing": [3.0, 3.0],
      "PregnancyStatus": 4,
      "ProcedureCodeSequence": [
        {
          "CodeMeaning": "MRI BRAIN WITHOUT IV CONTRAST",
          "CodeValue": "IMG269",
          "CodingSchemeDesignator": "L"
        }
],
      "ProtocolName": "gre_fm_bold",
      "RepetitionTime": 444.0,
      "RequestAttributesSequence": [
        {
          "ScheduledProcedureStepDescription": "MRI BRAIN WITHOUT IV CONTRAST",
          "ScheduledProcedureStepID": "E9554153",
          "ScheduledProtocolCodeSequence": [
            {
              "CodeMeaning": "MRI BRAIN WITHOUT IV CONTRAST",
              "CodeValue": "651061",
              "CodingSchemeDesignator": "L"
            }
]
        }
],
      "RequestedProcedureCodeSequence": [
        {
          "CodeMeaning": "MRI BRAIN WITHOUT IV CONTRAST",
          "CodeValue": "IMG269",
          "CodingSchemeDesignator": "L"
        }
],
      "RescaleIntercept": -4096.0,
      "RescaleSlope": 2.0,
      "RescaleType": "US",
      "Rows": 72,
      "SAR": 0.2278606994379,
      "SamplesPerPixel": 1,
      "ScanningSequence": "GR",
      "SequenceName": "*fm2d2r",
      "SequenceVariant": "SP",
      "SeriesDescription": "gre_fm_bold",
      "SeriesNumber": 5,
      "SeriesTime": "204643.298000",
      "SliceThickness": 3.0,
      "SmokingStatus": "UNKNOWN",
      "SoftwareVersions": "syngo MR E11",
      "SpacingBetweenSlices": 3.0,
      "SpecificCharacterSet": "ISO_IR 100",
      "StudyTime": "203715.879000",
      "TransmitCoilName": "Body",
      "VariableFlipAngleFlag": "N",
      "WindowCenterWidthExplanation": "Algo1",
      "dBdt": 0.0},
    "slices": {
      "AcquisitionTime": ["204538.745000", "204538.522500", "204538.755000", "204538.535000", "204538.767500", "204538.545000", "204538.780000", "204538.557500", "204538.792500", "204538.570000", "204538.802500", "204538.580000", "204538.815000", "204538.592500", "204538.827500", "204538.605000", "204538.837500", "204538.615000", "204538.850000", "204538.627500", "204538.862500", "204538.640000", "204538.872500", "204538.650000", "204538.885000", "204538.662500", "204538.897500", "204538.675000", "204538.907500", "204538.685000", "204538.920000", "204538.697500", "204538.932500", "204538.710000", "204538.942500", "204538.720000", "204538.955000", "204538.732500"],
      "ContentTime": ["204643.348000", "204643.300000", "204643.351000", "204643.303000", "204643.353000", "204643.305000", "204643.355000", "204643.308000", "204643.357000", "204643.311000", "204643.361000", "204643.313000", "204643.364000", "204643.316000", "204643.366000", "204643.319000", "204643.368000", "204643.322000", "204643.379000", "204643.325000", "204643.381000", "204643.327000", "204643.386000", "204643.329000", "204643.389000", "204643.332000", "204643.392000", "204643.334000", "204643.396000", "204643.337000", "204643.399000", "204643.339000", "204643.401000", "204643.342000", "204643.404000", "204643.344000", "204643.407000", "204643.346000"],
      "CsaImage.ICE_Dims": [
        "X_2_1_1_1_1_1_20_1_1_1_1_1013",
        "X_2_1_1_1_1_1_1_1_1_2_1_1013",
        "X_2_1_1_1_1_1_21_1_1_3_1_1013",
        "X_2_1_1_1_1_1_2_1_1_4_1_1013",
        "X_2_1_1_1_1_1_22_1_1_5_1_1013",
        "X_2_1_1_1_1_1_3_1_1_6_1_1013",
        "X_2_1_1_1_1_1_23_1_1_7_1_1013",
        "X_2_1_1_1_1_1_4_1_1_8_1_1013",
        "X_2_1_1_1_1_1_24_1_1_9_1_1013",
        "X_2_1_1_1_1_1_5_1_1_10_1_1013",
        "X_2_1_1_1_1_1_25_1_1_11_1_1013",
        "X_2_1_1_1_1_1_6_1_1_12_1_1013",
        "X_2_1_1_1_1_1_26_1_1_13_1_1013",
        "X_2_1_1_1_1_1_7_1_1_14_1_1013",
        "X_2_1_1_1_1_1_27_1_1_15_1_1013",
        "X_2_1_1_1_1_1_8_1_1_16_1_1013",
        "X_2_1_1_1_1_1_28_1_1_17_1_1013",
        "X_2_1_1_1_1_1_9_1_1_18_1_1013",
        "X_2_1_1_1_1_1_29_1_1_19_1_1013",
        "X_2_1_1_1_1_1_10_1_1_20_1_1013",
        "X_2_1_1_1_1_1_30_1_1_21_1_1013",
        "X_2_1_1_1_1_1_11_1_1_22_1_1013",
        "X_2_1_1_1_1_1_31_1_1_23_1_1013",
        "X_2_1_1_1_1_1_12_1_1_24_1_1013",
        "X_2_1_1_1_1_1_32_1_1_25_1_1013",
        "X_2_1_1_1_1_1_13_1_1_26_1_1013",
        "X_2_1_1_1_1_1_33_1_1_27_1_1013",
        "X_2_1_1_1_1_1_14_1_1_28_1_1013",
        "X_2_1_1_1_1_1_34_1_1_29_1_1013",
        "X_2_1_1_1_1_1_15_1_1_30_1_1013",
        "X_2_1_1_1_1_1_35_1_1_31_1_1013",
        "X_2_1_1_1_1_1_16_1_1_32_1_1013",
        "X_2_1_1_1_1_1_36_1_1_33_1_1013",
        "X_2_1_1_1_1_1_17_1_1_34_1_1013",
        "X_2_1_1_1_1_1_37_1_1_35_1_1013",
        "X_2_1_1_1_1_1_18_1_1_36_1_1013",
        "X_2_1_1_1_1_1_38_1_1_37_1_1013",
        "X_2_1_1_1_1_1_19_1_1_38_1_1013"
],
      "CsaImage.ProtocolSliceNumber": [0, 1, 2, 3, 4, 5, 6, 7, 8, 9, 10, 11, 12, 13, 14, 15, 16, 17, 18, 19, 20, 21, 22, 23, 24, 25, 26, 27, 28, 29, 30, 31, 32, 33, 34, 35, 36, 37],
      "CsaImage.SliceMeasurementDuration": [63047.5, 63047.5, 63050.0, 63047.5, 63047.5, 63050.0, 63047.5, 63047.5, 63047.5, 63047.5, 63047.5, 63050.0, 63047.5, 63047.5, 63047.5, 63047.5, 63047.5, 63050.0, 63047.5, 63047.5, 63047.5, 63047.5, 63047.5, 63050.0, 63047.5, 63047.5, 63047.5, 63047.5, 63047.5, 63050.0, 63047.5, 63047.5, 63047.5, 63047.5, 63047.5, 63050.0, 63047.5, 63047.5],
      "CsaImage.SlicePosition_PCS": [
        [-101.59450632, -98.15077003, -13.59510283],
        [-101.40613943, -98.56233104, -10.62944356],
        [-101.21777254, -98.97389206, -7.66378418],
        [-101.02940542, -99.38545307, -4.69812492],
        [-100.84103853, -99.79701313, -1.73246531],
        [-100.65267164, -100.20857414, 1.23319431],
        [-100.46430451, -100.62013515, 4.19885345],
        [-100.27593762, -101.03169616, 7.1645126],
        [-100.08757073, -101.44325718, 10.13017269],
        [-99.89920384, -101.85481819, 13.09583088],
        [-99.71083695, -102.2663792, 16.06149097],
        [-99.52246958, -102.67794021, 19.02714916],
        [-99.33410269, -103.08950123, 21.99280926],
        [-99.1457358, -103.50106224, 24.95846745],
        [-98.95736891, -103.91262325, 27.92412754],
        [-98.76900202, -104.32418426, 30.88978764],
        [-98.58063513, -104.73574528, 33.85544773],
        [-98.39226776, -105.14730629, 36.82110783],
        [-98.20390087, -105.5588673, 39.78676411],
        [-98.01553398, -105.97042784, 42.7524242],
        [-97.82716709, -106.38198885, 45.7180843],
        [-97.6388002, -106.79354986, 48.68374439],
        [-97.45043332, -107.20511087, 51.64940449],
        [-97.26206595, -107.61667188, 54.61506077],
        [-97.07369906, -108.0282329, 57.58072468],
        [-96.88533217, -108.43979391, 60.54638477],
        [-96.69696528, -108.85135492, 63.51203724],
        [-96.50859839, -109.26291581, 66.47769733],
        [-96.3202315, -109.67447671, 69.44335743],
        [-96.13186461, -110.08603772, 72.40901752],
        [-95.94349772, -110.49759867, 75.37467762],
        [-95.75513083, -110.90915965, 78.34033772],
        [-95.56676298, -111.32072061, 81.30599781],
        [-95.3783961, -111.73228159, 84.27165791],
        [-95.19002921, -112.14384254, 87.237318],
        [-95.00166232, -112.55540355, 90.2029781],
        [-94.81329543, -112.96696445, 93.16863056],
        [-94.62492854, -113.37852534, 96.13429066]
],
      "CsaImage.TimeAfterStart": [0.6675, 0.445, 0.68, 0.4575, 0.69, 0.47, 0.7025, 0.48, 0.715, 0.4925, 0.725, 0.505, 0.7375, 0.515, 0.75, 0.5275, 0.76, 0.54, 0.7725, 0.55, 0.785, 0.5625, 0.795, 0.575, 0.8075, 0.585, 0.82, 0.5975, 0.83, 0.61, 0.8425, 0.62, 0.855, 0.6325, 0.865, 0.645, 0.8775, 0.655],
      "ImagePositionPatient": [
        [-101.5945063245, -98.150770032652, -13.595102825241],
        [-101.40613943454, -98.56233104492, -10.629443564491],
        [-101.21777254459, -98.973892057188, -7.6637841845324],
        [-101.02940541622, -99.385453069456, -4.6981249237825],
        [-100.84103852626, -99.79701312805, -1.7324653054049],
        [-100.65267163631, -100.20857414032, 1.2331943129728],
        [-100.46430450794, -100.62013515259, 4.1988534545134],
        [-100.27593761798, -101.03169616485, 7.1645125960539],
        [-100.08757072803, -101.44325717712, 10.130172691269],
        [-99.899203838077, -101.85481818939, 13.095830879135],
        [-99.710836948124, -102.26637920166, 16.06149097435],
        [-99.522469581333, -102.67794021393, 19.027149162216],
        [-99.334102691379, -103.08950122619, 21.992809257431],
        [-99.145735801426, -103.50106223846, 24.958467445297],
        [-98.957368911472, -103.91262325073, 27.924127540512],
        [-98.769002021518, -104.324184263, 30.889787635727],
        [-98.580635131565, -104.73574527527, 33.855447730942],
        [-98.392267764774, -105.14730628753, 36.821107826156],
        [-98.20390087482, -105.5588672998, 39.786764106674],
        [-98.015533984867, -105.97042783523, 42.752424201889],
        [-97.827167094913, -106.3819888475, 45.718084297104],
        [-97.63880020496, -106.79354985977, 48.683744392319],
        [-97.450433315006, -107.20511087204, 51.649404487533],
        [-97.262065948215, -107.61667188431, 54.615060768051],
        [-97.073699058262, -108.02823289657, 57.580724677963],
        [-96.885332168308, -108.43979390884, 60.546384773178],
        [-96.696965278354, -108.85135492111, 63.512037238998],
        [-96.508598388401, -109.26291581417, 66.477697334213],
        [-96.320231498447, -109.67447670723, 69.443357429428],
        [-96.131864608493, -110.0860377195, 72.409017524643],
        [-95.94349771854, -110.49759867216, 75.374677619858],
        [-95.755130828586, -110.90915965462, 78.340337715072],
        [-95.566762984958, -111.32072060729, 81.305997810287],
        [-95.378396095005, -111.73228158975, 84.271657905502],
        [-95.190029205051, -112.14384254242, 87.237318000717],
        [-95.001662315097, -112.55540355469, 90.202978095932],
        [-94.813295425144, -112.96696444774, 93.168630561752],
        [-94.62492853519, -113.3785253408, 96.134290656967]
],
      "InstanceCreationTime": ["204643.348000", "204643.300000", "204643.351000", "204643.303000", "204643.353000", "204643.305000", "204643.355000", "204643.308000", "204643.357000", "204643.311000", "204643.361000", "204643.313000", "204643.364000", "204643.316000", "204643.366000", "204643.319000", "204643.368000", "204643.322000", "204643.379000", "204643.325000", "204643.381000", "204643.327000", "204643.386000", "204643.329000", "204643.389000", "204643.332000", "204643.392000", "204643.334000", "204643.396000", "204643.337000", "204643.399000", "204643.339000", "204643.401000", "204643.342000", "204643.404000", "204643.344000", "204643.407000", "204643.346000"],
      "InstanceNumber": [1, 2, 3, 4, 5, 6, 7, 8, 9, 10, 11, 12, 13, 14, 15, 16, 17, 18, 19, 20, 21, 22, 23, 24, 25, 26, 27, 28, 29, 30, 31, 32, 33, 34, 35, 36, 37, 38],
      "LargestImagePixelValue": [4091, 4091, 4095, 4091, 4093, 4092, 4079, 4092, 4090, 4091, 4091, 4091, 4083, 4064, 4090, 4093, 4092, 4065, 4066, 4094, 4093, 4091, 4087, 4093, 4095, 4076, 4089, 4090, 4092, 4090, 4092, 4092, 4089, 4095, 4090, 4093, 4095, 4094],
      "SliceLocation": [-6.3534895231577, -3.3534896226708, -0.3534896043393, 2.6465103111176, 5.6465104343069, 8.6465106883279, 11.64651048594, 14.646510268582, 17.646510993982, 20.646509833866, 23.646510559266, 26.646509429091, 29.646510154491, 32.646508994375, 35.646509719775, 38.646510445175, 41.646511170575, 44.646511925915, 47.646508880284, 50.646509540268, 53.646510265667, 56.646510991067, 59.646511716467, 62.646508700776, 65.646513197207, 68.646513922607, 71.646507105945, 74.646507814991, 77.646508524037, 80.646509249436, 83.646509966659, 86.646510687971, 89.646511465074, 92.646512186385, 95.646512903608, 98.646513629008, 101.64650679599, 104.64650750504],
      "SmallestImagePixelValue": [2, 0, 0, 0, 2, 11, 6, 6, 10, 8, 3, 20, 6, 0, 6, 0, 16, 72, 9, 7, 1, 2, 0, 17, 24, 5, 4, 4, 0, 1, 2, 0, 1, 0, 2, 1, 3, 0],
      "WindowCenter": [-236.0, -286.0, -208.0, -254.0, -302.0, -336.0, -458.0, -322.0, -356.0, -524.0, -462.0, -370.0, -216.0, -208.0, -180.0, -164.0, -110.0, -82.0, -118.0, -240.0, -240.0, -84.0, -98.0, -110.0, -118.0, -286.0, -136.0, -172.0, -208.0, -182.0, -206.0, -238.0, -218.0, -200.0, -274.0, -230.0, -172.0, -190.0],
      "WindowWidth": [6074.0, 6014.0, 5926.0, 5738.0, 5682.0, 5538.0, 4802.0, 5480.0, 5578.0, 4736.0, 4698.0, 4660.0, 5286.0, 5228.0, 5342.0, 5320.0, 5338.0, 5352.0, 5098.0, 4584.0, 4586.0, 5218.0, 5206.0, 5152.0, 5196.0, 4640.0, 5408.0, 5274.0, 5270.0, 5540.0, 5584.0, 5600.0, 5706.0, 5788.0, 5908.0, 5968.0, 6122.0, 6234.0]
    }
  }
}