{
  "AcquisitionMatrixPE": 72,
  "AcquisitionNumber": 1,
  "AcquisitionTime": "19:38:58.055000",
  "BandwidthPerPixelPhaseEncode": 24.366,
  "BaseResolution": 72,
  "BodyPartExamined": "BRAIN",
  "CoilCombinationMethod": "Sum of Squares",
  "ConsistencyInfo": "N4_VE11C_LATEST_20160120",
  "ConversionSoftware": "dcm2niix",
  "ConversionSoftwareVersion": "v1.0.20220720",
  "DerivedVendorReportedEchoSpacing": 0.000570011,
  "DeviceSerialNumber": "45219",
  "DwellTime": 3.5e-06,
  "EchoTime": 0.03,
  "EchoTrainLength": 72,
  "EffectiveEchoSpacing": 0.000570011,
  "FlipAngle": 80,
  "HeudiconvVersion": "1.1.6",
  "ImageOrientationPatientDICOM": [0.999976, -0.00047481, -0.00696492, -9.19154e-09, 0.997684, -0.0680151],
  "ImageOrientationText": "Tra>Cor(-3.9)>Sag(-0.4)",
  "ImageType": [
    "ORIGINAL",
    "PRIMARY",
    "M",
    "ND",
    "NORM",
    "MOSAIC"
],
  "ImagingFrequency": 123.182,
  "InPlanePhaseEncodingDirectionDICOM": "COL",
  "InstitutionAddress": "First Avenue 660,New York,NYC,US,10016",
  "InstitutionName": "NYU LANGONE CBI",
  "InstitutionalDepartmentName": "Department",
  "MRAcquisitionType": "2D",
  "MagneticFieldStrength": 3,
  "Manufacturer": "Siemens",
  "ManufacturersModelName": "Skyra",
  "MatrixCoilMode": "SENSE",
  "Modality": "MR",
  "NonlinearGradientCorrection": false,
  "PartialFourier": 1,
  "PatientPosition": "HFS",
  "PercentPhaseFOV": 100,
  "PercentSampling": 100,
  "PhaseEncodingDirection": "j-",
  "PhaseEncodingSteps": 72,
  "PhaseResolution": 1,
  "PixelBandwidth": 1985,
  "ProcedureStepDescription": "MRI BRAIN WITHOUT IV CONTRAST",
  "ProtocolName": "REST_2",
  "PulseSequenceDetails": "%SiemensSeq%\\ep2d_bold",
  "ReceiveCoilActiveElements": "HE1-4",
  "ReceiveCoilName": "HeadNeck_20",
  "ReconMatrixPE": 72,
  "RepetitionTime": 2.5,
  "SAR": 0.100072,
  "ScanOptions": "FS",
  "ScanningSequence": "EP",
  "SequenceName": "*epfid2d1_72",
  "SequenceVariant": "SK",
  "SeriesDescription": "REST_2",
  "SeriesNumber": 8,
  "ShimSetting": [-874, -6971, 5003, 301, -166, -308, 381, -114],
  "SliceThickness": 3,
  "SliceTiming": [1.24, 0, 1.305, 0.065, 1.37, 0.13, 1.435, 0.195, 1.5, 0.26, 1.565, 0.325, 1.63, 0.39, 1.695, 0.455, 1.76, 0.52, 1.825, 0.585, 1.8925, 0.6525, 1.9575, 0.7175, 2.0225, 0.7825, 2.0875, 0.8475, 2.1525, 0.9125, 2.2175, 0.9775, 2.2825, 1.0425, 2.3475, 1.1075, 2.4125, 1.1725],
  "SoftwareVersions": "syngo MR E11",
  "SpacingBetweenSlices": 3,
  "StationName": "MRC45219",
  "TaskName": "rest",
  "TotalReadoutTime": 0.0404708,
  "TxRefAmp": 446.594,
  "dcmmeta_affine": [
    [-2.999926805496216, -2.7574625249826568e-08, -0.02094326727092266, 108.38497924804688],
    [0.0014244313351809978, 2.9930529594421387, -0.20404039323329926, -102.22074890136719],
    [-0.020894771441817284, 0.2040453553199768, 2.9929800033569336, -62.035037994384766],
    [0.0, 0.0, 0.0, 1.0]
],
  "dcmmeta_reorient_transform": [
    [0.0, -1.0, 0.0, 71.0],
    [1.0, 0.0, 0.0, 0.0],
    [0.0, 0.0, 1.0, 0.0],
    [0.0, 0.0, 0.0, 1.0]
],
  "dcmmeta_shape": [72, 72, 38, 122],
  "dcmmeta_slice_dim": 2,
  "dcmmeta_version": 0.6,
  "global": {
    "const": {
      "AccessionNumber": "123344233",
      "AcquisitionMatrix": [72, 0, 0, 72],
      "AngioFlag": "N",
      "BitsAllocated": 16,
      "BitsStored": 12,
      "BodyPartExamined": "BRAIN",
      "Columns": 504,
      "CountryOfResidence": "United States of America [1]",
      "EchoNumbers": 1,
      "EchoTime": 30.0,
      "EchoTrainLength": 72,
      "FlipAngle": 80.0,
      "HighBit": 11,
      "ImageOrientationPatient": [0.99997563189919, -0.0004748104595, -0.0069649237507, -9.191542e-09, 0.99768429044056, -0.0680151204375],
      "ImagePositionPatient": [-756.36917768579, -756.47775085117, 1.0392530058712],
      "ImageType": [
        "ORIGINAL",
        "PRIMARY",
        "M",
        "ND",
        "NORM",
        "MOSAIC"
],
      "ImagedNucleus": "1H",
      "ImagingFrequency": 123.182099,
      "InPlanePhaseEncodingDirection": "COL",
      "MRAcquisitionType": "2D",
      "MagneticFieldStrength": 3.0,
      "Manufacturer": "SIEMENS",
      "ManufacturerModelName": "Skyra",
      "Modality": "MR",
      "NumberOfAverages": 1.0,
      "NumberOfPhaseEncodingSteps": 72,
      "PercentPhaseFieldOfView": 100.0,
      "PercentSampling": 100.0,
      "PerformedProcedureStepStartTime": "191717.650000",
      "PhotometricInterpretation": "MONOCHROME2",
      "PixelBandwidth": 1985.0,
      "PixelRepresentation": 0,
      "PixelSpacing": [3.0, 3.0],
      "PregnancyStatus": 4,
      "ProcedureCodeSequence": [
        {
          "CodeMeaning": "MRI BRAIN WITHOUT IV CONTRAST",
          "CodeValue": "IMG269",
          "CodingSchemeDesignator": "L"
        }
],
      "ProtocolName": "REST_2",
      "RepetitionTime": 2500.0,
      "RequestAttributesSequence": [
        {
          "RequestedProcedureID": "125739972",
          "ScheduledProcedureStepDescription": "MRI BRAIN WITHOUT IV CONTRAST",
          "ScheduledProcedureStepID": "E9534232",
          "ScheduledProtocolCodeSequence": [
            {
              "CodeMeaning": "MRI BRAIN WITHOUT IV CONTRAST",
              "CodeValue": "651061",
              "CodingSchemeDesignator": "L"
            }
]
        }
],
      "RequestedProcedureCodeSequence": [
        {
          "CodeMeaning": "MRI BRAIN WITHOUT IV CONTRAST",
          "CodeValue": "IMG269",
          "CodingSchemeDesignator": "L"
        }
],
      "Rows": 504,
      "SAR": 0.10007185710482,
      "SamplesPerPixel": 1,
      "ScanOptions": "FS",
      "ScanningSequence": "EP",
      "SequenceName": "*epfid2d1_72",
      "SequenceVariant": "SK",
      "SeriesDescription": "REST_2",
      "SeriesNumber": 8,
      "SeriesTime": "194003.638000",
      "SliceLocation": -55.694131237152,
      "SliceThickness": 3.0,
      "SmallestImagePixelValue": 0,
      "SmokingStatus": "UNKNOWN",
      "SoftwareVersions": "syngo MR E11",
      "SpacingBetweenSlices": 2.9999999899635,
      "SpecificCharacterSet": "ISO_IR 100",
      "StudyID": "CM",
      "StudyTime": "191717.501000",
      "TransmitCoilName": "Body",
      "VariableFlipAngleFlag": "N",
      "WindowCenterWidthExplanation": "Algo1",
      "dBdt": 0.0},
    "slices": {}
  },
  "time": {
    "samples": {
      "AcquisitionNumber": [1, 2, 3, 4, 5, 6, 7, 8, 9, 10, 11, 12, 13, 14, 15, 16, 17, 18, 19, 20, 21, 22, 23, 24, 25, 26, 27, 28, 29, 30, 31, 32, 33, 34, 35, 36, 37, 38, 39, 40, 41, 42, 43, 44, 45, 46, 47, 48, 49, 50, 51, 52, 53, 54, 55, 56, 57, 58, 59, 60, 61, 62, 63, 64, 65, 66, 67, 68, 69, 70, 71, 72, 73, 74, 75, 76, 77, 78, 79, 80, 81, 82, 83, 84, 85, 86, 87, 88, 89, 90, 91, 92, 93, 94, 95, 96, 97, 98, 99, 100, 101, 102, 103, 104, 105, 106, 107, 108, 109, 110, 111, 112, 113, 114, 115, 116, 117, 118, 119, 120, 121, 122],
      "AcquisitionTime": ["193858.055000", "193900.555000", "193903.055000", "193905.555000", "193908.055000", "193910.555000", "193913.055000", "193915.555000", "193918.055000", "193920.555000", "193923.055000", "193925.555000", "193928.055000", "193930.555000", "193933.055000", "193935.555000", "193938.055000", "193940.555000", "193943.055000", "193945.555000", "193948.055000", "193950.555000", "193953.055000", "193955.555000", "193958.055000", "194000.555000", "194003.055000", "194005.555000", "194008.055000", "194010.555000", "194013.055000", "194015.555000", "194018.055000", "194020.555000", "194023.055000", "194025.555000", "194028.055000", "194030.555000", "194033.055000", "194035.555000", "194038.055000", "194040.555000", "194043.055000", "194045.555000", "194048.055000", "194050.555000", "194053.055000", "194055.555000", "194058.055000", "194100.555000", "194103.055000", "194105.555000", "194108.055000", "194110.555000", "194113.055000", "194115.555000", "194118.055000", "194120.555000", "194123.055000", "194125.555000", "194128.055000", "194130.555000", "194133.055000", "194135.555000", "194138.055000", "194140.555000", "194143.055000", "194145.555000", "194148.055000", "194150.555000", "194153.055000", "194155.555000", "194158.055000", "194200.555000", "194203.055000", "194205.555000", "194208.055000", "194210.555000", "194213.055000", "194215.555000", "194218.055000", "194220.555000", "194223.055000", "194225.555000", "194228.055000", "194230.555000", "194233.055000", "194235.555000", "194238.055000", "194240.555000", "194243.055000", "194245.555000", "194248.055000", "194250.555000", "194253.055000", "194255.555000", "194258.055000", "194300.555000", "194303.055000", "194305.555000", "194308.055000", "194310.555000", "194313.055000", "194315.555000", "194318.055000", "194320.555000", "194323.055000", "194325.555000", "194328.055000", "194330.555000", "194333.055000", "194335.555000", "194338.055000", "194340.555000", "194343.055000", "194345.555000", "194348.055000", "194350.555000", "194353.055000", "194355.555000", "194358.055000", "194400.555000"],
      "ContentTime": ["194003.642000", "194003.645000", "194003.648000", "194003.650000", "194003.653000", "194003.656000", "194003.659000", "194003.661000", "194003.664000", "194003.666000", "194003.669000", "194003.672000", "194003.674000", "194003.677000", "194003.679000", "194003.682000", "194003.685000", "194003.687000", "194003.690000", "194003.693000", "194003.696000", "194003.698000", "194003.701000", "194003.703000", "194003.706000", "194003.709000", "194103.637000", "194103.639000", "194103.642000", "194103.645000", "194103.647000", "194103.650000", "194103.653000", "194103.655000", "194103.658000", "194103.661000", "194103.663000", "194103.668000", "194103.671000", "194103.674000", "194103.676000", "194103.679000", "194103.681000", "194103.684000", "194103.687000", "194103.689000", "194103.692000", "194103.694000", "194103.697000", "194103.700000", "194203.637000", "194203.640000", "194203.647000", "194203.650000", "194203.652000", "194203.655000", "194203.658000", "194203.660000", "194203.663000", "194203.665000", "194203.668000", "194203.671000", "194203.673000", "194203.676000", "194203.678000", "194203.681000", "194203.684000", "194203.686000", "194203.689000", "194203.691000", "194203.694000", "194203.697000", "194203.699000", "194203.702000", "194303.637000", "194303.639000", "194303.642000", "194303.645000", "194303.648000", "194303.650000", "194303.653000", "194303.656000", "194303.658000", "194303.661000", "194303.663000", "194303.666000", "194303.668000", "194303.671000", "194303.674000", "194303.676000", "194303.679000", "194303.682000", "194303.684000", "194303.687000", "194303.690000", "194303.692000", "194303.695000", "194303.698000", "194402.875000", "194402.877000", "194402.880000", "194402.883000", "194402.886000", "194402.888000", "194402.891000", "194402.894000", "194402.896000", "194402.899000", "194402.902000", "194402.904000", "194402.910000", "194402.913000", "194402.918000", "194402.921000", "194402.924000", "194402.929000", "194402.933000", "194402.936000", "194402.939000", "194402.943000", "194402.946000", "194402.949000"],
      "InstanceCreationTime": ["194003.642000", "194003.645000", "194003.648000", "194003.650000", "194003.653000", "194003.656000", "194003.659000", "194003.661000", "194003.664000", "194003.666000", "194003.669000", "194003.672000", "194003.674000", "194003.677000", "194003.679000", "194003.682000", "194003.685000", "194003.687000", "194003.690000", "194003.693000", "194003.696000", "194003.698000", "194003.701000", "194003.703000", "194003.706000", "194003.709000", "194103.637000", "194103.639000", "194103.642000", "194103.645000", "194103.647000", "194103.650000", "194103.653000", "194103.655000", "194103.658000", "194103.661000", "194103.663000", "194103.668000", "194103.671000", "194103.674000", "194103.676000", "194103.679000", "194103.681000", "194103.684000", "194103.687000", "194103.689000", "194103.692000", "194103.694000", "194103.697000", "194103.700000", "194203.637000", "194203.640000", "194203.647000", "194203.650000", "194203.652000", "194203.655000", "194203.658000", "194203.660000", "194203.663000", "194203.665000", "194203.668000", "194203.671000", "194203.673000", "194203.676000", "194203.678000", "194203.681000", "194203.684000", "194203.686000", "194203.689000", "194203.691000", "194203.694000", "194203.697000", "194203.699000", "194203.702000", "194303.637000", "194303.639000", "194303.642000", "194303.645000", "194303.648000", "194303.650000", "194303.653000", "194303.656000", "194303.658000", "194303.661000", "194303.663000", "194303.666000", "194303.668000", "194303.671000", "194303.674000", "194303.676000", "194303.679000", "194303.682000", "194303.684000", "194303.687000", "194303.690000", "194303.692000", "194303.695000", "194303.698000", "194402.875000", "194402.877000", "194402.880000", "194402.883000", "194402.886000", "194402.888000", "194402.891000", "194402.894000", "194402.896000", "194402.899000", "194402.902000", "194402.904000", "194402.910000", "194402.913000", "194402.918000", "194402.921000", "194402.924000", "194402.929000", "194402.933000", "194402.936000", "194402.939000", "194402.943000", "194402.946000", "194402.949000"],
      "InstanceNumber": [1, 2, 3, 4, 5, 6, 7, 8, 9, 10, 11, 12, 13, 14, 15, 16, 17, 18, 19, 20, 21, 22, 23, 24, 25, 26, 27, 28, 29, 30, 31, 32, 33, 34, 35, 36, 37, 38, 39, 40, 41, 42, 43, 44, 45, 46, 47, 48, 49, 50, 51, 52, 53, 54, 55, 56, 57, 58, 59, 60, 61, 62, 63, 64, 65, 66, 67, 68, 69, 70, 71, 72, 73, 74, 75, 76, 77, 78, 79, 80, 81, 82, 83, 84, 85, 86, 87, 88, 89, 90, 91, 92, 93, 94, 95, 96, 97, 98, 99, 100, 101, 102, 103, 104, 105, 106, 107, 108, 109, 110, 111, 112, 113, 114, 115, 116, 117, 118, 119, 120, 121, 122],
      "LargestImagePixelValue": [2587, 2176, 2239, 2264, 2265, 2143, 2167, 2265, 2399, 2354, 2111, 1904, 2171, 2528, 2527, 1798, 2395, 1980, 1806, 2379, 2562, 2268, 1867, 2380, 2571, 2351, 1758, 2502, 2025, 1775, 2469, 2300, 1706, 1733, 2656, 2054, 1866, 2438, 2276, 2281, 2060, 2042, 2252, 2502, 1821, 1997, 2370, 2149, 2028, 1740, 2287, 1717, 1754, 2482, 1914, 1736, 1823, 2334, 1893, 2424, 2233, 1725, 1779, 2164, 2030, 1702, 1971, 2048, 2024, 2499, 1919, 1946, 2160, 2343, 2634, 2047, 2191, 2338, 1880, 2246, 1844, 1703, 1715, 1969, 2160, 2043, 1777, 2029, 1900, 2001, 2561, 2097, 1858, 2043, 2002, 2111, 1692, 1731, 1727, 1677, 1826, 2047, 2289, 1754, 1990, 2562, 1707, 1752, 1903, 1726, 1657, 1758, 2157, 1786, 1661, 1749, 1768, 2272, 1973, 1747, 1675, 1831],
      "WindowCenter": [683.0, 680.0, 680.0, 681.0, 680.0, 680.0, 681.0, 681.0, 681.0, 680.0, 679.0, 678.0, 678.0, 679.0, 679.0, 677.0, 679.0, 679.0, 679.0, 681.0, 680.0, 680.0, 679.0, 680.0, 680.0, 679.0, 677.0, 680.0, 678.0, 678.0, 681.0, 680.0, 678.0, 679.0, 681.0, 678.0, 677.0, 676.0, 680.0, 678.0, 678.0, 679.0, 679.0, 679.0, 677.0, 679.0, 680.0, 678.0, 678.0, 677.0, 679.0, 678.0, 679.0, 681.0, 678.0, 678.0, 679.0, 681.0, 678.0, 679.0, 677.0, 675.0, 677.0, 679.0, 678.0, 677.0, 678.0, 680.0, 679.0, 680.0, 679.0, 680.0, 679.0, 679.0, 680.0, 678.0, 678.0, 677.0, 675.0, 677.0, 675.0, 675.0, 677.0, 678.0, 679.0, 678.0, 677.0, 679.0, 678.0, 678.0, 680.0, 678.0, 677.0, 677.0, 677.0, 677.0, 676.0, 677.0, 677.0, 678.0, 678.0, 678.0, 680.0, 676.0, 678.0, 678.0, 675.0, 676.0, 676.0, 676.0, 677.0, 678.0, 679.0, 677.0, 677.0, 678.0, 679.0, 678.0, 676.0, 676.0, 677.0, 677.0],
      "WindowWidth": [1458.0, 1450.0, 1450.0, 1453.0, 1451.0, 1450.0, 1452.0, 1453.0, 1452.0, 1450.0, 1448.0, 1445.0, 1446.0, 1449.0, 1449.0, 1443.0, 1447.0, 1447.0, 1447.0, 1452.0, 1451.0, 1450.0, 1447.0, 1450.0, 1450.0, 1448.0, 1443.0, 1449.0, 1446.0, 1447.0, 1452.0, 1450.0, 1446.0, 1448.0, 1454.0, 1447.0, 1442.0, 1441.0, 1450.0, 1447.0, 1445.0, 1447.0, 1449.0, 1449.0, 1444.0, 1448.0, 1450.0, 1446.0, 1445.0, 1443.0, 1449.0, 1445.0, 1448.0, 1453.0, 1446.0, 1445.0, 1449.0, 1453.0, 1445.0, 1448.0, 1444.0, 1440.0, 1444.0, 1448.0, 1445.0, 1442.0, 1447.0, 1450.0, 1447.0, 1449.0, 1447.0, 1450.0, 1449.0, 1448.0, 1449.0, 1445.0, 1446.0, 1443.0, 1439.0, 1443.0, 1438.0, 1440.0, 1444.0, 1447.0, 1449.0, 1447.0, 1443.0, 1448.0, 1447.0, 1447.0, 1450.0, 1446.0, 1443.0, 1444.0, 1443.0, 1444.0, 1442.0, 1443.0, 1444.0, 1446.0, 1446.0, 1447.0, 1451.0, 1442.0, 1446.0, 1446.0, 1439.0, 1442.0, 1442.0, 1443.0, 1444.0, 1446.0, 1448.0, 1444.0, 1444.0, 1447.0, 1448.0, 1447.0, 1442.0, 1443.0, 1445.0, 1444.0]
    },
    "slices": {}
  }
}