{
  "AcquisitionMatrixPE": 72,
  "AcquisitionNumber": 1,
  "AcquisitionTime": "19:44:40.835000",
  "BandwidthPerPixelPhaseEncode": 24.366,
  "BaseResolution": 72,
  "BodyPartExamined": "BRAIN",
  "CoilCombinationMethod": "Sum of Squares",
  "ConsistencyInfo": "N4_VE11C_LATEST_20160120",
  "ConversionSoftware": "dcm2niix",
  "ConversionSoftwareVersion": "v1.0.20220720",
  "DerivedVendorReportedEchoSpacing": 0.000570011,
  "DeviceSerialNumber": "45219",
  "DwellTime": 3.5e-06,
  "EchoTime": 0.03,
  "EchoTrainLength": 72,
  "EffectiveEchoSpacing": 0.000570011,
  "FlipAngle": 80,
  "HeudiconvVersion": "1.1.6",
  "ImageOrientationPatientDICOM": [0.999976, -0.00047481, -0.00696492, -9.19154e-09, 0.997684, -0.0680151],
  "ImageOrientationText": "Tra>Cor(-3.9)>Sag(-0.4)",
  "ImageType": [
    "ORIGINAL",
    "PRIMARY",
    "M",
    "ND",
    "NORM",
    "MOSAIC"
],
  "ImagingFrequency": 123.182,
  "InPlanePhaseEncodingDirectionDICOM": "COL",
  "InstitutionAddress": "First Avenue 660,New York,NYC,US,10016",
  "InstitutionName": "NYU LANGONE CBI",
  "InstitutionalDepartmentName": "Department",
  "MRAcquisitionType": "2D",
  "MagneticFieldStrength": 3,
  "Manufacturer": "Siemens",
  "ManufacturersModelName": "Skyra",
  "MatrixCoilMode": "SENSE",
  "Modality": "MR",
  "NonlinearGradientCorrection": false,
  "PartialFourier": 1,
  "PatientPosition": "HFS",
  "PercentPhaseFOV": 100,
  "PercentSampling": 100,
  "PhaseEncodingDirection": "j-",
  "PhaseEncodingSteps": 72,
  "PhaseResolution": 1,
  "PixelBandwidth": 1985,
  "ProcedureStepDescription": "MRI BRAIN WITHOUT IV CONTRAST",
  "ProtocolName": "TASK_AB",
  "PulseSequenceDetails": "%SiemensSeq%\\ep2d_bold",
  "ReceiveCoilActiveElements": "HE1-4",
  "ReceiveCoilName": "HeadNeck_20",
  "ReconMatrixPE": 72,
  "RepetitionTime": 2.5,
  "SAR": 0.100108,
  "ScanOptions": "FS",
  "ScanningSequence": "EP",
  "SequenceName": "*epfid2d1_72",
  "SequenceVariant": "SK",
  "SeriesDescription": "TASK_AB",
  "SeriesNumber": 10,
  "ShimSetting": [-874, -6971, 5003, 301, -166, -308, 381, -114],
  "SliceThickness": 3,
  "SliceTiming": [1.24, 0, 1.305, 0.065, 1.37, 0.13, 1.435, 0.195, 1.5, 0.26, 1.565, 0.325, 1.63, 0.39, 1.695, 0.455, 1.7625, 0.5225, 1.8275, 0.5875, 1.8925, 0.6525, 1.9575, 0.7175, 2.0225, 0.7825, 2.0875, 0.8475, 2.1525, 0.9125, 2.2175, 0.9775, 2.2825, 1.0425, 2.3475, 1.1075, 2.415, 1.175],
  "SoftwareVersions": "syngo MR E11",
  "SpacingBetweenSlices": 3,
  "StationName": "MRC45219",
  "TaskName": "ab",
  "TotalReadoutTime": 0.0404708,
  "TxRefAmp": 446.594,
  "dcmmeta_affine": [
    [-2.999926805496216, -2.7574625249826568e-08, -0.02094326727092266, 108.38497924804688],
    [0.0014244313351809978, 2.9930529594421387, -0.20404039323329926, -102.22074890136719],
    [-0.020894771441817284, 0.2040453553199768, 2.9929800033569336, -62.035037994384766],
    [0.0, 0.0, 0.0, 1.0]
],
  "dcmmeta_reorient_transform": [
    [0.0, -1.0, 0.0, 71.0],
    [1.0, 0.0, 0.0, 0.0],
    [0.0, 0.0, 1.0, 0.0],
    [0.0, 0.0, 0.0, 1.0]
],
  "dcmmeta_shape": [72, 72, 38, 132],
  "dcmmeta_slice_dim": 2,
  "dcmmeta_version": 0.6,
  "global": {
    "const": {
      "AccessionNumber": "123344233",
      "AcquisitionMatrix": [72, 0, 0, 72],
      "AngioFlag": "N",
      "BitsAllocated": 16,
      "BitsStored": 12,
      "BodyPartExamined": "BRAIN",
      "Columns": 504,
      "CountryOfResidence": "United States of America [1]",
      "EchoNumbers": 1,
      "EchoTime": 30.0,
      "EchoTrainLength": 72,
      "FlipAngle": 80.0,
      "HighBit": 11,
      "ImageOrientationPatient": [0.99997563189919, -0.0004748104595, -0.0069649237507, -9.191542e-09, 0.99768429044056, -0.0680151204375],
      "ImagePositionPatient": [-756.36917768579, -756.47775085117, 1.0392530058712],
      "ImageType": [
        "ORIGINAL",
        "PRIMARY",
        "M",
        "ND",
        "NORM",
        "MOSAIC"
],
      "ImagedNucleus": "1H",
      "ImagingFrequency": 123.182124,
      "InPlanePhaseEncodingDirection": "COL",
      "MRAcquisitionType": "2D",
      "MagneticFieldStrength": 3.0,
      "Manufacturer": "SIEMENS",
      "ManufacturerModelName": "Skyra",
      "Modality": "MR",
      "NumberOfAverages": 1.0,
      "NumberOfPhaseEncodingSteps": 72,
      "PercentPhaseFieldOfView": 100.0,
      "PercentSampling": 100.0,
      "PerformedProcedureStepStartTime": "191717.650000",
      "PhotometricInterpretation": "MONOCHROME2",
      "PixelBandwidth": 1985.0,
      "PixelRepresentation": 0,
      "PixelSpacing": [3.0, 3.0],
      "PregnancyStatus": 4,
      "ProcedureCodeSequence": [
        {
          "CodeMeaning": "MRI BRAIN WITHOUT IV CONTRAST",
          "CodeValue": "IMG269",
          "CodingSchemeDesignator": "L"
        }
],
      "ProtocolName": "TASK_AB",
      "RepetitionTime": 2500.0,
      "RequestAttributesSequence": [
        {
          "RequestedProcedureID": "125739972",
          "ScheduledProcedureStepDescription": "MRI BRAIN WITHOUT IV CONTRAST",
          "ScheduledProcedureStepID": "E9534232",
          "ScheduledProtocolCodeSequence": [
            {
              "CodeMeaning": "MRI BRAIN WITHOUT IV CONTRAST",
              "CodeValue": "651061",
              "CodingSchemeDesignator": "L"
            }
]
        }
],
      "RequestedProcedureCodeSequence": [
        {
          "CodeMeaning": "MRI BRAIN WITHOUT IV CONTRAST",
          "CodeValue": "IMG269",
          "CodingSchemeDesignator": "L"
        }
],
      "Rows": 504,
      "SAR": 0.10010782883555,
      "SamplesPerPixel": 1,
      "ScanOptions": "FS",
      "ScanningSequence": "EP",
      "SequenceName": "*epfid2d1_72",
      "SequenceVariant": "SK",
      "SeriesDescription": "TASK_AB",
      "SeriesNumber": 10,
      "SeriesTime": "194541.351000",
      "SliceLocation": -55.694131237152,
      "SliceThickness": 3.0,
      "SmallestImagePixelValue": 0,
      "SmokingStatus": "UNKNOWN",
      "SoftwareVersions": "syngo MR E11",
      "SpacingBetweenSlices": 2.9999999899635,
      "SpecificCharacterSet": "ISO_IR 100",
      "StudyID": "CM",
      "StudyTime": "191717.501000",
      "TransmitCoilName": "Body",
      "VariableFlipAngleFlag": "N",
      "WindowCenterWidthExplanation": "Algo1",
      "dBdt": 0.0},
    "slices": {}
  },
  "time": {
    "samples": {
      "AcquisitionNumber": [1, 2, 3, 4, 5, 6, 7, 8, 9, 10, 11, 12, 13, 14, 15, 16, 17, 18, 19, 20, 21, 22, 23, 24, 25, 26, 27, 28, 29, 30, 31, 32, 33, 34, 35, 36, 37, 38, 39, 40, 41, 42, 43, 44, 45, 46, 47, 48, 49, 50, 51, 52, 53, 54, 55, 56, 57, 58, 59, 60, 61, 62, 63, 64, 65, 66, 67, 68, 69, 70, 71, 72, 73, 74, 75, 76, 77, 78, 79, 80, 81, 82, 83, 84, 85, 86, 87, 88, 89, 90, 91, 92, 93, 94, 95, 96, 97, 98, 99, 100, 101, 102, 103, 104, 105, 106, 107, 108, 109, 110, 111, 112, 113, 114, 115, 116, 117, 118, 119, 120, 121, 122, 123, 124, 125, 126, 127, 128, 129, 130, 131, 132],
      "AcquisitionTime": ["194440.835000", "194443.335000", "194445.835000", "194448.335000", "194450.835000", "194453.335000", "194455.835000", "194458.335000", "194500.835000", "194503.335000", "194505.835000", "194508.335000", "194510.835000", "194513.335000", "194515.835000", "194518.335000", "194520.835000", "194523.335000", "194525.835000", "194528.335000", "194530.835000", "194533.335000", "194535.835000", "194538.335000", "194540.835000", "194543.335000", "194545.835000", "194548.335000", "194550.835000", "194553.335000", "194555.835000", "194558.335000", "194600.835000", "194603.335000", "194605.835000", "194608.335000", "194610.835000", "194613.335000", "194615.835000", "194618.335000", "194620.835000", "194623.335000", "194625.835000", "194628.335000", "194630.835000", "194633.335000", "194635.835000", "194638.335000", "194640.835000", "194643.335000", "194645.835000", "194648.335000", "194650.835000", "194653.335000", "194655.835000", "194658.335000", "194700.835000", "194703.335000", "194705.835000", "194708.335000", "194710.835000", "194713.335000", "194715.835000", "194718.335000", "194720.835000", "194723.335000", "194725.835000", "194728.335000", "194730.835000", "194733.335000", "194735.835000", "194738.335000", "194740.835000", "194743.335000", "194745.835000", "194748.335000", "194750.835000", "194753.335000", "194755.835000", "194758.335000", "194800.835000", "194803.335000", "194805.835000", "194808.335000", "194810.835000", "194813.335000", "194815.835000", "194818.335000", "194820.835000", "194823.335000", "194825.835000", "194828.335000", "194830.835000", "194833.335000", "194835.835000", "194838.335000", "194840.835000", "194843.335000", "194845.835000", "194848.335000", "194850.835000", "194853.335000", "194855.835000", "194858.335000", "194900.835000", "194903.335000", "194905.835000", "194908.335000", "194910.835000", "194913.335000", "194915.835000", "194918.335000", "194920.835000", "194923.335000", "194925.835000", "194928.335000", "194930.835000", "194933.335000", "194935.835000", "194938.335000", "194940.835000", "194943.335000", "194945.835000", "194948.335000", "194950.835000", "194953.335000", "194955.835000", "194958.335000", "195000.835000", "195003.335000", "195005.835000", "195008.335000"],
      "ContentTime": ["194541.355000", "194541.358000", "194541.361000", "194541.364000", "194541.366000", "194541.369000", "194541.371000", "194541.374000", "194541.376000", "194541.379000", "194541.382000", "194541.384000", "194541.387000", "194541.390000", "194541.392000", "194541.395000", "194541.397000", "194541.408000", "194541.411000", "194541.413000", "194541.416000", "194541.419000", "194541.421000", "194541.424000", "194641.349000", "194641.351000", "194641.354000", "194641.357000", "194641.359000", "194641.362000", "194641.364000", "194641.367000", "194641.370000", "194641.372000", "194641.375000", "194641.378000", "194641.380000", "194641.383000", "194641.385000", "194641.388000", "194641.391000", "194641.393000", "194641.396000", "194641.398000", "194641.401000", "194641.404000", "194641.406000", "194641.409000", "194741.350000", "194741.353000", "194741.355000", "194741.358000", "194741.360000", "194741.363000", "194741.365000", "194741.368000", "194741.371000", "194741.373000", "194741.376000", "194741.379000", "194741.381000", "194741.384000", "194741.386000", "194741.389000", "194741.392000", "194741.394000", "194741.397000", "194741.399000", "194741.402000", "194741.404000", "194741.407000", "194741.410000", "194841.350000", "194841.353000", "194841.355000", "194841.358000", "194841.360000", "194841.363000", "194841.365000", "194841.369000", "194841.371000", "194841.374000", "194841.377000", "194841.379000", "194841.382000", "194841.385000", "194841.387000", "194841.390000", "194841.392000", "194841.395000", "194841.397000", "194841.400000", "194841.403000", "194841.405000", "194841.408000", "194841.411000", "194941.350000", "194941.352000", "194941.355000", "194941.358000", "194941.360000", "194941.363000", "194941.366000", "194941.368000", "194941.371000", "194941.374000", "194941.376000", "194941.379000", "194941.382000", "194941.384000", "194941.387000", "194941.389000", "194941.392000", "194941.395000", "194941.398000", "194941.400000", "194941.403000", "194941.406000", "194941.408000", "194941.411000", "195010.485000", "195010.488000", "195010.490000", "195010.493000", "195010.496000", "195010.498000", "195010.501000", "195010.504000", "195010.506000", "195010.509000", "195010.512000", "195010.515000"],
      "InstanceCreationTime": ["194541.355000", "194541.358000", "194541.361000", "194541.364000", "194541.366000", "194541.369000", "194541.371000", "194541.374000", "194541.376000", "194541.379000", "194541.382000", "194541.384000", "194541.387000", "194541.390000", "194541.392000", "194541.395000", "194541.397000", "194541.408000", "194541.411000", "194541.413000", "194541.416000", "194541.419000", "194541.421000", "194541.424000", "194641.349000", "194641.351000", "194641.354000", "194641.357000", "194641.359000", "194641.362000", "194641.364000", "194641.367000", "194641.370000", "194641.372000", "194641.375000", "194641.378000", "194641.380000", "194641.383000", "194641.385000", "194641.388000", "194641.391000", "194641.393000", "194641.396000", "194641.398000", "194641.401000", "194641.404000", "194641.406000", "194641.409000", "194741.350000", "194741.353000", "194741.355000", "194741.358000", "194741.360000", "194741.363000", "194741.365000", "194741.368000", "194741.371000", "194741.373000", "194741.376000", "194741.379000", "194741.381000", "194741.384000", "194741.386000", "194741.389000", "194741.392000", "194741.394000", "194741.397000", "194741.399000", "194741.402000", "194741.404000", "194741.407000", "194741.410000", "194841.350000", "194841.353000", "194841.355000", "194841.358000", "194841.360000", "194841.363000", "194841.365000", "194841.369000", "194841.371000", "194841.374000", "194841.377000", "194841.379000", "194841.382000", "194841.385000", "194841.387000", "194841.390000", "194841.392000", "194841.395000", "194841.397000", "194841.400000", "194841.403000", "194841.405000", "194841.408000", "194841.411000", "194941.350000", "194941.352000", "194941.355000", "194941.358000", "194941.360000", "194941.363000", "194941.366000", "194941.368000", "194941.371000", "194941.374000", "194941.376000", "194941.379000", "194941.382000", "194941.384000", "194941.387000", "194941.389000", "194941.392000", "194941.395000", "194941.398000", "194941.400000", "194941.403000", "194941.406000", "194941.408000", "194941.411000", "195010.485000", "195010.488000", "195010.490000", "195010.493000", "195010.496000", "195010.498000", "195010.501000", "195010.504000", "195010.506000", "195010.509000", "195010.512000", "195010.515000"],
      "InstanceNumber": [1, 2, 3, 4, 5, 6, 7, 8, 9, 10, 11, 12, 13, 14, 15, 16, 17, 18, 19, 20, 21, 22, 23, 24, 25, 26, 27, 28, 29, 30, 31, 32, 33, 34, 35, 36, 37, 38, 39, 40, 41, 42, 43, 44, 45, 46, 47, 48, 49, 50, 51, 52, 53, 54, 55, 56, 57, 58, 59, 60, 61, 62, 63, 64, 65, 66, 67, 68, 69, 70, 71, 72, 73, 74, 75, 76, 77, 78, 79, 80, 81, 82, 83, 84, 85, 86, 87, 88, 89, 90, 91, 92, 93, 94, 95, 96, 97, 98, 99, 100, 101, 102, 103, 104, 105, 106, 107, 108, 109, 110, 111, 112, 113, 114, 115, 116, 117, 118, 119, 120, 121, 122, 123, 124, 125, 126, 127, 128, 129, 130, 131, 132],
      "LargestImagePixelValue": [2168, 2199, 1840, 2121, 2239, 2242, 2186, 2170, 2038, 1765, 2146, 2099, 1759, 1763, 2592, 1825, 1744, 2232, 2064, 1811, 1981, 1773, 1698, 2221, 1855, 1607, 2020, 1913, 1693, 1777, 2141, 2110, 1738, 1774, 1713, 1916, 1704, 1771, 1692, 2303, 1809, 1711, 1723, 1783, 1691, 1756, 1879, 1681, 1941, 2185, 1906, 1770, 1805, 1953, 1750, 1686, 1691, 1829, 1911, 1820, 1711, 1739, 2457, 1993, 1657, 1703, 1892, 1692, 1757, 1828, 1831, 1684, 1756, 1713, 1699, 1971, 1922, 1773, 1686, 1842, 1866, 1679, 1768, 1800, 1793, 1684, 1902, 1723, 1912, 2232, 1907, 2198, 2493, 1731, 1713, 1693, 1855, 1907, 2168, 1907, 1830, 1683, 1890, 2043, 1769, 1591, 1854, 1681, 1626, 1976, 1863, 1855, 2136, 2093, 1961, 1818, 1724, 1728, 1730, 1821, 2049, 1993, 2079, 1804, 1667, 1603, 1789, 1617, 1602, 1844, 1641, 1623],
      "WindowCenter": [681.0, 680.0, 679.0, 680.0, 680.0, 680.0, 679.0, 678.0, 679.0, 679.0, 680.0, 680.0, 679.0, 679.0, 680.0, 678.0, 678.0, 680.0, 679.0, 678.0, 678.0, 678.0, 677.0, 679.0, 676.0, 663.0, 675.0, 676.0, 676.0, 678.0, 678.0, 676.0, 675.0, 676.0, 677.0, 677.0, 675.0, 676.0, 677.0, 678.0, 676.0, 676.0, 676.0, 676.0, 675.0, 676.0, 677.0, 675.0, 675.0, 675.0, 675.0, 676.0, 676.0, 675.0, 675.0, 676.0, 677.0, 676.0, 675.0, 676.0, 676.0, 676.0, 677.0, 675.0, 674.0, 674.0, 675.0, 675.0, 676.0, 676.0, 675.0, 674.0, 674.0, 676.0, 676.0, 676.0, 675.0, 673.0, 674.0, 676.0, 675.0, 674.0, 676.0, 675.0, 674.0, 674.0, 676.0, 675.0, 666.0, 680.0, 676.0, 675.0, 676.0, 671.0, 676.0, 678.0, 678.0, 676.0, 676.0, 675.0, 673.0, 676.0, 672.0, 676.0, 669.0, 668.0, 676.0, 673.0, 667.0, 677.0, 675.0, 673.0, 674.0, 674.0, 671.0, 673.0, 675.0, 669.0, 678.0, 670.0, 676.0, 673.0, 672.0, 673.0, 671.0, 671.0, 674.0, 669.0, 671.0, 675.0, 666.0, 674.0],
      "WindowWidth": [1454.0, 1452.0, 1448.0, 1451.0, 1451.0, 1451.0, 1450.0, 1447.0, 1449.0, 1448.0, 1450.0, 1450.0, 1449.0, 1449.0, 1451.0, 1446.0, 1445.0, 1451.0, 1448.0, 1446.0, 1447.0, 1445.0, 1445.0, 1448.0, 1441.0, 1408.0, 1440.0, 1441.0, 1442.0, 1446.0, 1447.0, 1442.0, 1440.0, 1442.0, 1444.0, 1444.0, 1440.0, 1442.0, 1443.0, 1446.0, 1441.0, 1442.0, 1441.0, 1441.0, 1441.0, 1442.0, 1444.0, 1440.0, 1441.0, 1440.0, 1439.0, 1441.0, 1441.0, 1440.0, 1440.0, 1443.0, 1443.0, 1442.0, 1441.0, 1442.0, 1443.0, 1442.0, 1444.0, 1439.0, 1437.0, 1437.0, 1440.0, 1440.0, 1441.0, 1442.0, 1438.0, 1437.0, 1436.0, 1443.0, 1443.0, 1441.0, 1440.0, 1436.0, 1437.0, 1441.0, 1439.0, 1438.0, 1441.0, 1439.0, 1438.0, 1437.0, 1442.0, 1440.0, 1415.0, 1452.0, 1442.0, 1439.0, 1441.0, 1430.0, 1441.0, 1446.0, 1446.0, 1442.0, 1440.0, 1440.0, 1434.0, 1442.0, 1432.0, 1441.0, 1424.0, 1421.0, 1442.0, 1435.0, 1419.0, 1445.0, 1440.0, 1434.0, 1436.0, 1436.0, 1428.0, 1434.0, 1439.0, 1424.0, 1446.0, 1427.0, 1443.0, 1433.0, 1431.0, 1435.0, 1431.0, 1429.0, 1436.0, 1424.0, 1429.0, 1440.0, 1417.0, 1439.0]
    },
    "slices": {}
  }
}