{
  "AcquisitionMatrixPE": 72,
  "AcquisitionNumber": 1,
  "AcquisitionTime": "19:38:58.055000",
  "BandwidthPerPixelPhaseEncode": 24.366,
  "BaseResolution": 72,
  "BodyPartExamined": "BRAIN",
  "CoilCombinationMethod": "Sum of Squares",
  "ConsistencyInfo": "N4_VE11C_LATEST_20160120",
  "ConversionSoftware": "dcm2niix",
  "ConversionSoftwareVersion": "v1.0.20220720",
  "DerivedVendorReportedEchoSpacing": 0.000570011,
  "DeviceSerialNumber": "45219",
  "DwellTime": 3.5e-06,
  "EchoTime": 0.03,
  "EchoTrainLength": 72,
  "EffectiveEchoSpacing": 0.000570011,
  "FlipAngle": 80,
  "HeudiconvVersion": "1.1.6",
  "ImageComments": "Reference volume for motion correction.",
  "ImageOrientationPatientDICOM": [0.999976, -0.00047481, -0.00696492, -9.19154e-09, 0.997684, -0.0680151],
  "ImageOrientationText": "Tra>Cor(-3.9)>Sag(-0.4)",
  "ImageType": [
    "ORIGINAL",
    "PRIMARY",
    "M",
    "ND",
    "NORM",
    "MOCO",
    "MOSAIC"
],
  "ImagingFrequency": 123.182,
  "InPlanePhaseEncodingDirectionDICOM": "COL",
  "InstitutionAddress": "First Avenue 660,New York,NYC,US,10016",
  "InstitutionName": "NYU LANGONE CBI",
  "InstitutionalDepartmentName": "Department",
  "MRAcquisitionType": "2D",
  "MagneticFieldStrength": 3,
  "Manufacturer": "Siemens",
  "ManufacturersModelName": "Skyra",
  "MatrixCoilMode": "SENSE",
  "Modality": "MR",
  "NonlinearGradientCorrection": false,
  "PartialFourier": 1,
  "PatientPosition": "HFS",
  "PercentPhaseFOV": 100,
  "PercentSampling": 100,
  "PhaseEncodingDirection": "j-",
  "PhaseEncodingSteps": 72,
  "PhaseResolution": 1,
  "PixelBandwidth": 1985,
  "ProcedureStepDescription": "MRI BRAIN WITHOUT IV CONTRAST",
  "ProtocolName": "REST_2_MoCo",
  "PulseSequenceDetails": "%SiemensSeq%\\ep2d_bold",
  "ReceiveCoilActiveElements": "HE1-4",
  "ReceiveCoilName": "HeadNeck_20",
  "ReconMatrixPE": 72,
  "RepetitionTime": 2.5,
  "SAR": 0.100072,
  "ScanOptions": "FS",
  "ScanningSequence": "EP",
  "SequenceName": "*epfid2d1_72",
  "SequenceVariant": "SK",
  "SeriesDescription": "MoCoSeries",
  "SeriesNumber": 9,
  "ShimSetting": [-874, -6971, 5003, 301, -166, -308, 381, -114],
  "SliceThickness": 3,
  "SliceTiming": [1.24, 0, 1.305, 0.065, 1.37, 0.13, 1.435, 0.195, 1.5, 0.26, 1.565, 0.325, 1.63, 0.39, 1.695, 0.455, 1.76, 0.52, 1.825, 0.585, 1.8925, 0.6525, 1.9575, 0.7175, 2.0225, 0.7825, 2.0875, 0.8475, 2.1525, 0.9125, 2.2175, 0.9775, 2.2825, 1.0425, 2.3475, 1.1075, 2.4125, 1.1725],
  "SoftwareVersions": "syngo MR E11",
  "SpacingBetweenSlices": 3,
  "StationName": "MRC45219",
  "TaskName": "rest",
  "TotalReadoutTime": 0.0404708,
  "TxRefAmp": 446.594,
  "dcmmeta_affine": [
    [-2.999926805496216, -2.7574625249826568e-08, -0.02094326727092266, 108.38497924804688],
    [0.0014244313351809978, 2.9930529594421387, -0.20404039323329926, -102.22074890136719],
    [-0.020894771441817284, 0.2040453553199768, 2.9929800033569336, -62.035037994384766],
    [0.0, 0.0, 0.0, 1.0]
],
  "dcmmeta_reorient_transform": [
    [0.0, -1.0, 0.0, 71.0],
    [1.0, 0.0, 0.0, 0.0],
    [0.0, 0.0, 1.0, 0.0],
    [0.0, 0.0, 0.0, 1.0]
],
  "dcmmeta_shape": [72, 72, 38, 122],
  "dcmmeta_slice_dim": 2,
  "dcmmeta_version": 0.6,
  "global": {
    "const": {
      "AccessionNumber": "123344233",
      "AcquisitionMatrix": [72, 0, 0, 72],
      "AngioFlag": "N",
      "BitsAllocated": 16,
      "BitsStored": 12,
      "BodyPartExamined": "BRAIN",
      "Columns": 504,
      "CountryOfResidence": "United States of America [1]",
      "EchoNumbers": 1,
      "EchoTime": 30.0,
      "EchoTrainLength": 72,
      "FlipAngle": 80.0,
      "HighBit": 11,
      "ImageOrientationPatient": [0.99997563189919, -0.0004748104595, -0.0069649237507, -9.191542e-09, 0.99768429044056, -0.0680151204375],
      "ImagePositionPatient": [-756.36917768579, -756.47775085117, 1.0392530058712],
      "ImageType": [
        "ORIGINAL",
        "PRIMARY",
        "M",
        "ND",
        "NORM",
        "MOCO",
        "MOSAIC"
],
      "ImagedNucleus": "1H",
      "ImagingFrequency": 123.182099,
      "InPlanePhaseEncodingDirection": "COL",
      "MRAcquisitionType": "2D",
      "MagneticFieldStrength": 3.0,
      "Manufacturer": "SIEMENS",
      "ManufacturerModelName": "Skyra",
      "Modality": "MR",
      "NumberOfAverages": 1.0,
      "NumberOfPhaseEncodingSteps": 72,
      "PercentPhaseFieldOfView": 100.0,
      "PercentSampling": 100.0,
      "PerformedProcedureStepStartTime": "191717.650000",
      "PhotometricInterpretation": "MONOCHROME2",
      "PixelBandwidth": 1985.0,
      "PixelRepresentation": 0,
      "PixelSpacing": [3.0, 3.0],
      "PregnancyStatus": 4,
      "ProcedureCodeSequence": [
        {
          "CodeMeaning": "MRI BRAIN WITHOUT IV CONTRAST",
          "CodeValue": "IMG269",
          "CodingSchemeDesignator": "L"
        }
],
      "ProtocolName": "REST_2",
      "RepetitionTime": 2500.0,
      "RequestAttributesSequence": [
        {
          "RequestedProcedureID": "125739972",
          "ScheduledProcedureStepDescription": "MRI BRAIN WITHOUT IV CONTRAST",
          "ScheduledProcedureStepID": "E9534232",
          "ScheduledProtocolCodeSequence": [
            {
              "CodeMeaning": "MRI BRAIN WITHOUT IV CONTRAST",
              "CodeValue": "651061",
              "CodingSchemeDesignator": "L"
            }
]
        }
],
      "RequestedProcedureCodeSequence": [
        {
          "CodeMeaning": "MRI BRAIN WITHOUT IV CONTRAST",
          "CodeValue": "IMG269",
          "CodingSchemeDesignator": "L"
        }
],
      "Rows": 504,
      "SAR": 0.10007185710482,
      "SamplesPerPixel": 1,
      "ScanOptions": "FS",
      "ScanningSequence": "EP",
      "SequenceName": "*epfid2d1_72",
      "SequenceVariant": "SK",
      "SeriesDescription": "MoCoSeries",
      "SeriesNumber": 9,
      "SeriesTime": "194003.736000",
      "SliceLocation": -55.694131237152,
      "SliceThickness": 3.0,
      "SmallestImagePixelValue": 0,
      "SmokingStatus": "UNKNOWN",
      "SoftwareVersions": "syngo MR E11",
      "SpacingBetweenSlices": 2.9999999899635,
      "SpecificCharacterSet": "ISO_IR 100",
      "StudyID": "CM",
      "StudyTime": "191717.501000",
      "TransmitCoilName": "Body",
      "VariableFlipAngleFlag": "N",
      "WindowCenterWidthExplanation": "Algo1",
      "dBdt": 0.0},
    "slices": {}
  },
  "time": {
    "samples": {
      "AcquisitionNumber": [1, 2, 3, 4, 5, 6, 7, 8, 9, 10, 11, 12, 13, 14, 15, 16, 17, 18, 19, 20, 21, 22, 23, 24, 25, 26, 27, 28, 29, 30, 31, 32, 33, 34, 35, 36, 37, 38, 39, 40, 41, 42, 43, 44, 45, 46, 47, 48, 49, 50, 51, 52, 53, 54, 55, 56, 57, 58, 59, 60, 61, 62, 63, 64, 65, 66, 67, 68, 69, 70, 71, 72, 73, 74, 75, 76, 77, 78, 79, 80, 81, 82, 83, 84, 85, 86, 87, 88, 89, 90, 91, 92, 93, 94, 95, 96, 97, 98, 99, 100, 101, 102, 103, 104, 105, 106, 107, 108, 109, 110, 111, 112, 113, 114, 115, 116, 117, 118, 119, 120, 121, 122],
      "AcquisitionTime": ["193858.055000", "193900.555000", "193903.055000", "193905.555000", "193908.055000", "193910.555000", "193913.055000", "193915.555000", "193918.055000", "193920.555000", "193923.055000", "193925.555000", "193928.055000", "193930.555000", "193933.055000", "193935.555000", "193938.055000", "193940.555000", "193943.055000", "193945.555000", "193948.055000", "193950.555000", "193953.055000", "193955.555000", "193958.055000", "194000.555000", "194003.055000", "194005.555000", "194008.055000", "194010.555000", "194013.055000", "194015.555000", "194018.055000", "194020.555000", "194023.055000", "194025.555000", "194028.055000", "194030.555000", "194033.055000", "194035.555000", "194038.055000", "194040.555000", "194043.055000", "194045.555000", "194048.055000", "194050.555000", "194053.055000", "194055.555000", "194058.055000", "194100.555000", "194103.055000", "194105.555000", "194108.055000", "194110.555000", "194113.055000", "194115.555000", "194118.055000", "194120.555000", "194123.055000", "194125.555000", "194128.055000", "194130.555000", "194133.055000", "194135.555000", "194138.055000", "194140.555000", "194143.055000", "194145.555000", "194148.055000", "194150.555000", "194153.055000", "194155.555000", "194158.055000", "194200.555000", "194203.055000", "194205.555000", "194208.055000", "194210.555000", "194213.055000", "194215.555000", "194218.055000", "194220.555000", "194223.055000", "194225.555000", "194228.055000", "194230.555000", "194233.055000", "194235.555000", "194238.055000", "194240.555000", "194243.055000", "194245.555000", "194248.055000", "194250.555000", "194253.055000", "194255.555000", "194258.055000", "194300.555000", "194303.055000", "194305.555000", "194308.055000", "194310.555000", "194313.055000", "194315.555000", "194318.055000", "194320.555000", "194323.055000", "194325.555000", "194328.055000", "194330.555000", "194333.055000", "194335.555000", "194338.055000", "194340.555000", "194343.055000", "194345.555000", "194348.055000", "194350.555000", "194353.055000", "194355.555000", "194358.055000", "194400.555000"],
      "ContentTime": ["194003.738000", "194003.742000", "194003.744000", "194003.747000", "194003.749000", "194003.752000", "194003.755000", "194003.758000", "194003.760000", "194003.763000", "194003.770000", "194003.773000", "194003.776000", "194003.778000", "194003.781000", "194003.784000", "194003.786000", "194003.789000", "194003.792000", "194003.795000", "194003.797000", "194003.800000", "194003.803000", "194003.805000", "194003.808000", "194003.811000", "194103.749000", "194103.752000", "194103.755000", "194103.757000", "194103.760000", "194103.763000", "194103.765000", "194103.768000", "194103.771000", "194103.773000", "194103.776000", "194103.779000", "194103.781000", "194103.784000", "194103.787000", "194103.790000", "194103.792000", "194103.795000", "194103.798000", "194103.800000", "194103.803000", "194103.806000", "194103.808000", "194103.811000", "194203.737000", "194203.740000", "194203.743000", "194203.745000", "194203.748000", "194203.751000", "194203.754000", "194203.756000", "194203.759000", "194203.762000", "194203.764000", "194203.767000", "194203.770000", "194203.772000", "194203.775000", "194203.778000", "194203.780000", "194203.783000", "194203.786000", "194203.788000", "194203.791000", "194203.794000", "194203.797000", "194203.799000", "194303.741000", "194303.744000", "194303.747000", "194303.750000", "194303.753000", "194303.755000", "194303.758000", "194303.761000", "194303.763000", "194303.766000", "194303.769000", "194303.772000", "194303.774000", "194303.777000", "194303.780000", "194303.782000", "194303.785000", "194303.788000", "194303.791000", "194303.793000", "194303.796000", "194303.799000", "194303.802000", "194303.804000", "194402.992000", "194402.995000", "194402.998000", "194403.001000", "194403.004000", "194403.007000", "194403.010000", "194403.013000", "194403.015000", "194403.018000", "194403.021000", "194403.023000", "194403.026000", "194403.029000", "194403.032000", "194403.034000", "194403.037000", "194403.040000", "194403.042000", "194403.045000", "194403.048000", "194403.050000", "194403.053000", "194403.056000"],
      "InstanceCreationTime": ["194003.738000", "194003.742000", "194003.744000", "194003.747000", "194003.749000", "194003.752000", "194003.755000", "194003.758000", "194003.760000", "194003.763000", "194003.770000", "194003.773000", "194003.776000", "194003.778000", "194003.781000", "194003.784000", "194003.786000", "194003.789000", "194003.792000", "194003.795000", "194003.797000", "194003.800000", "194003.803000", "194003.805000", "194003.808000", "194003.811000", "194103.749000", "194103.752000", "194103.755000", "194103.757000", "194103.760000", "194103.763000", "194103.765000", "194103.768000", "194103.771000", "194103.773000", "194103.776000", "194103.779000", "194103.781000", "194103.784000", "194103.787000", "194103.790000", "194103.792000", "194103.795000", "194103.798000", "194103.800000", "194103.803000", "194103.806000", "194103.808000", "194103.811000", "194203.737000", "194203.740000", "194203.743000", "194203.745000", "194203.748000", "194203.751000", "194203.754000", "194203.756000", "194203.759000", "194203.762000", "194203.764000", "194203.767000", "194203.770000", "194203.772000", "194203.775000", "194203.778000", "194203.780000", "194203.783000", "194203.786000", "194203.788000", "194203.791000", "194203.794000", "194203.797000", "194203.799000", "194303.741000", "194303.744000", "194303.747000", "194303.750000", "194303.753000", "194303.755000", "194303.758000", "194303.761000", "194303.763000", "194303.766000", "194303.769000", "194303.772000", "194303.774000", "194303.777000", "194303.780000", "194303.782000", "194303.785000", "194303.788000", "194303.791000", "194303.793000", "194303.796000", "194303.799000", "194303.802000", "194303.804000", "194402.992000", "194402.995000", "194402.998000", "194403.001000", "194403.004000", "194403.007000", "194403.010000", "194403.013000", "194403.015000", "194403.018000", "194403.021000", "194403.023000", "194403.026000", "194403.029000", "194403.032000", "194403.034000", "194403.037000", "194403.040000", "194403.042000", "194403.045000", "194403.048000", "194403.050000", "194403.053000", "194403.056000"],
      "InstanceNumber": [1, 2, 3, 4, 5, 6, 7, 8, 9, 10, 11, 12, 13, 14, 15, 16, 17, 18, 19, 20, 21, 22, 23, 24, 25, 26, 27, 28, 29, 30, 31, 32, 33, 34, 35, 36, 37, 38, 39, 40, 41, 42, 43, 44, 45, 46, 47, 48, 49, 50, 51, 52, 53, 54, 55, 56, 57, 58, 59, 60, 61, 62, 63, 64, 65, 66, 67, 68, 69, 70, 71, 72, 73, 74, 75, 76, 77, 78, 79, 80, 81, 82, 83, 84, 85, 86, 87, 88, 89, 90, 91, 92, 93, 94, 95, 96, 97, 98, 99, 100, 101, 102, 103, 104, 105, 106, 107, 108, 109, 110, 111, 112, 113, 114, 115, 116, 117, 118, 119, 120, 121, 122],
      "LargestImagePixelValue": [2587, 2181, 2294, 2272, 2278, 2102, 2127, 2282, 2467, 2390, 2149, 1934, 2187, 2613, 2590, 1848, 2477, 2045, 1772, 2451, 2680, 2357, 1838, 2453, 2697, 2446, 1798, 2613, 2120, 1732, 2623, 2430, 1762, 1759, 2853, 2166, 1908, 2472, 2271, 2387, 2155, 2158, 2412, 2678, 1938, 2119, 2541, 2280, 2138, 1781, 2419, 1783, 1788, 2690, 2038, 1797, 1934, 2521, 1916, 2522, 2411, 1762, 1825, 2351, 2192, 1779, 2105, 2254, 2235, 2694, 1963, 2015, 2285, 2502, 2825, 2193, 2395, 2566, 2008, 2432, 1972, 1813, 1714, 2016, 2350, 2243, 1908, 2183, 1761, 2204, 2798, 2262, 1785, 2227, 2130, 2294, 1776, 1822, 1878, 1736, 1985, 2222, 2530, 1937, 2229, 2852, 1841, 1803, 2080, 1843, 1726, 1921, 2388, 1740, 1795, 1854, 1819, 2539, 2177, 1829, 1798, 2040],
      "WindowCenter": [683.0, 680.0, 680.0, 681.0, 680.0, 680.0, 680.0, 681.0, 681.0, 680.0, 679.0, 678.0, 678.0, 680.0, 680.0, 677.0, 679.0, 679.0, 679.0, 681.0, 681.0, 680.0, 679.0, 680.0, 681.0, 680.0, 677.0, 680.0, 679.0, 679.0, 682.0, 681.0, 679.0, 680.0, 682.0, 679.0, 677.0, 677.0, 680.0, 679.0, 679.0, 679.0, 680.0, 680.0, 678.0, 680.0, 680.0, 679.0, 679.0, 678.0, 680.0, 678.0, 680.0, 682.0, 679.0, 678.0, 681.0, 682.0, 679.0, 680.0, 679.0, 676.0, 679.0, 681.0, 679.0, 678.0, 680.0, 682.0, 680.0, 681.0, 679.0, 681.0, 680.0, 680.0, 681.0, 679.0, 680.0, 679.0, 677.0, 678.0, 676.0, 677.0, 678.0, 680.0, 681.0, 680.0, 678.0, 681.0, 679.0, 680.0, 681.0, 680.0, 677.0, 679.0, 679.0, 679.0, 678.0, 678.0, 679.0, 679.0, 680.0, 681.0, 682.0, 678.0, 680.0, 680.0, 677.0, 678.0, 679.0, 679.0, 679.0, 680.0, 681.0, 678.0, 679.0, 680.0, 680.0, 681.0, 679.0, 678.0, 679.0, 680.0],
      "WindowWidth": [1458.0, 1450.0, 1451.0, 1453.0, 1451.0, 1450.0, 1451.0, 1453.0, 1452.0, 1451.0, 1448.0, 1445.0, 1446.0, 1449.0, 1450.0, 1444.0, 1448.0, 1448.0, 1447.0, 1452.0, 1453.0, 1451.0, 1447.0, 1451.0, 1452.0, 1449.0, 1444.0, 1451.0, 1448.0, 1447.0, 1454.0, 1452.0, 1448.0, 1450.0, 1456.0, 1449.0, 1443.0, 1442.0, 1450.0, 1449.0, 1447.0, 1449.0, 1451.0, 1451.0, 1446.0, 1450.0, 1451.0, 1448.0, 1447.0, 1445.0, 1451.0, 1447.0, 1449.0, 1456.0, 1448.0, 1447.0, 1452.0, 1455.0, 1447.0, 1450.0, 1447.0, 1442.0, 1447.0, 1451.0, 1448.0, 1445.0, 1450.0, 1454.0, 1451.0, 1452.0, 1448.0, 1452.0, 1451.0, 1450.0, 1452.0, 1448.0, 1449.0, 1447.0, 1442.0, 1446.0, 1441.0, 1442.0, 1446.0, 1449.0, 1452.0, 1451.0, 1446.0, 1452.0, 1447.0, 1451.0, 1453.0, 1449.0, 1444.0, 1448.0, 1446.0, 1448.0, 1446.0, 1446.0, 1448.0, 1449.0, 1451.0, 1452.0, 1455.0, 1446.0, 1451.0, 1451.0, 1443.0, 1444.0, 1446.0, 1447.0, 1447.0, 1449.0, 1453.0, 1446.0, 1448.0, 1451.0, 1451.0, 1452.0, 1447.0, 1446.0, 1449.0, 1449.0]
    },
    "slices": {}
  }
}