{
  "AcquisitionMatrixPE": 72,
  "AcquisitionNumber": 1,
  "AcquisitionTime": "19:50:55.010000",
  "BandwidthPerPixelPhaseEncode": 24.366,
  "BaseResolution": 72,
  "BodyPartExamined": "BRAIN",
  "CoilCombinationMethod": "Sum of Squares",
  "ConsistencyInfo": "N4_VE11C_LATEST_20160120",
  "ConversionSoftware": "dcm2niix",
  "ConversionSoftwareVersion": "v1.0.20220720",
  "DerivedVendorReportedEchoSpacing": 0.000570011,
  "DeviceSerialNumber": "45219",
  "DwellTime": 3.5e-06,
  "EchoTime": 0.03,
  "EchoTrainLength": 72,
  "EffectiveEchoSpacing": 0.000570011,
  "FlipAngle": 80,
  "HeudiconvVersion": "1.1.6",
  "ImageOrientationPatientDICOM": [0.999976, -0.00047481, -0.00696492, -9.19154e-09, 0.997684, -0.0680151],
  "ImageOrientationText": "Tra>Cor(-3.9)>Sag(-0.4)",
  "ImageType": [
    "ORIGINAL",
    "PRIMARY",
    "M",
    "ND",
    "NORM",
    "MOSAIC"
],
  "ImagingFrequency": 123.182,
  "InPlanePhaseEncodingDirectionDICOM": "COL",
  "InstitutionAddress": "First Avenue 660,New York,NYC,US,10016",
  "InstitutionName": "NYU LANGONE CBI",
  "InstitutionalDepartmentName": "Department",
  "MRAcquisitionType": "2D",
  "MagneticFieldStrength": 3,
  "Manufacturer": "Siemens",
  "ManufacturersModelName": "Skyra",
  "MatrixCoilMode": "SENSE",
  "Modality": "MR",
  "NonlinearGradientCorrection": false,
  "PartialFourier": 1,
  "PatientPosition": "HFS",
  "PercentPhaseFOV": 100,
  "PercentSampling": 100,
  "PhaseEncodingDirection": "j-",
  "PhaseEncodingSteps": 72,
  "PhaseResolution": 1,
  "PixelBandwidth": 1985,
  "ProcedureStepDescription": "MRI BRAIN WITHOUT IV CONTRAST",
  "ProtocolName": "TASK_CD",
  "PulseSequenceDetails": "%SiemensSeq%\\ep2d_bold",
  "ReceiveCoilActiveElements": "HE1-4",
  "ReceiveCoilName": "HeadNeck_20",
  "ReconMatrixPE": 72,
  "RepetitionTime": 2.5,
  "SAR": 0.100108,
  "ScanOptions": "FS",
  "ScanningSequence": "EP",
  "SequenceName": "*epfid2d1_72",
  "SequenceVariant": "SK",
  "SeriesDescription": "TASK_CD",
  "SeriesNumber": 12,
  "ShimSetting": [-874, -6971, 5003, 301, -166, -308, 381, -114],
  "SliceThickness": 3,
  "SliceTiming": [1.24, 0, 1.305, 0.065, 1.37, 0.13, 1.435, 0.195, 1.5, 0.26, 1.565, 0.325, 1.6325, 0.3925, 1.6975, 0.4575, 1.7625, 0.5225, 1.8275, 0.5875, 1.8925, 0.6525, 1.9575, 0.7175, 2.0225, 0.7825, 2.0875, 0.8475, 2.1525, 0.9125, 2.2175, 0.98, 2.285, 1.045, 2.35, 1.11, 2.415, 1.175],
  "SoftwareVersions": "syngo MR E11",
  "SpacingBetweenSlices": 3,
  "StationName": "MRC45219",
  "TaskName": "cd",
  "TotalReadoutTime": 0.0404708,
  "TxRefAmp": 446.594,
  "dcmmeta_affine": [
    [-2.999926805496216, -2.7574625249826568e-08, -0.02094326727092266, 108.38497924804688],
    [0.0014244313351809978, 2.9930529594421387, -0.20404039323329926, -102.22074890136719],
    [-0.020894771441817284, 0.2040453553199768, 2.9929800033569336, -62.035037994384766],
    [0.0, 0.0, 0.0, 1.0]
],
  "dcmmeta_reorient_transform": [
    [0.0, -1.0, 0.0, 71.0],
    [1.0, 0.0, 0.0, 0.0],
    [0.0, 0.0, 1.0, 0.0],
    [0.0, 0.0, 0.0, 1.0]
],
  "dcmmeta_shape": [72, 72, 38, 132],
  "dcmmeta_slice_dim": 2,
  "dcmmeta_version": 0.6,
  "global": {
    "const": {
      "AccessionNumber": "123344233",
      "AcquisitionMatrix": [72, 0, 0, 72],
      "AngioFlag": "N",
      "BitsAllocated": 16,
      "BitsStored": 12,
      "BodyPartExamined": "BRAIN",
      "Columns": 504,
      "CountryOfResidence": "United States of America [1]",
      "EchoNumbers": 1,
      "EchoTime": 30.0,
      "EchoTrainLength": 72,
      "FlipAngle": 80.0,
      "HighBit": 11,
      "ImageOrientationPatient": [0.99997563189919, -0.0004748104595, -0.0069649237507, -9.191542e-09, 0.99768429044056, -0.0680151204375],
      "ImagePositionPatient": [-756.36917768579, -756.47775085117, 1.0392530058712],
      "ImageType": [
        "ORIGINAL",
        "PRIMARY",
        "M",
        "ND",
        "NORM",
        "MOSAIC"
],
      "ImagedNucleus": "1H",
      "ImagingFrequency": 123.182152,
      "InPlanePhaseEncodingDirection": "COL",
      "MRAcquisitionType": "2D",
      "MagneticFieldStrength": 3.0,
      "Manufacturer": "SIEMENS",
      "ManufacturerModelName": "Skyra",
      "Modality": "MR",
      "NumberOfAverages": 1.0,
      "NumberOfPhaseEncodingSteps": 72,
      "PercentPhaseFieldOfView": 100.0,
      "PercentSampling": 100.0,
      "PerformedProcedureStepStartTime": "191717.650000",
      "PhotometricInterpretation": "MONOCHROME2",
      "PixelBandwidth": 1985.0,
      "PixelRepresentation": 0,
      "PixelSpacing": [3.0, 3.0],
      "PregnancyStatus": 4,
      "ProcedureCodeSequence": [
        {
          "CodeMeaning": "MRI BRAIN WITHOUT IV CONTRAST",
          "CodeValue": "IMG269",
          "CodingSchemeDesignator": "L"
        }
],
      "ProtocolName": "TASK_CD",
      "RepetitionTime": 2500.0,
      "RequestAttributesSequence": [
        {
          "RequestedProcedureID": "125739972",
          "ScheduledProcedureStepDescription": "MRI BRAIN WITHOUT IV CONTRAST",
          "ScheduledProcedureStepID": "E9534232",
          "ScheduledProtocolCodeSequence": [
            {
              "CodeMeaning": "MRI BRAIN WITHOUT IV CONTRAST",
              "CodeValue": "651061",
              "CodingSchemeDesignator": "L"
            }
]
        }
],
      "RequestedProcedureCodeSequence": [
        {
          "CodeMeaning": "MRI BRAIN WITHOUT IV CONTRAST",
          "CodeValue": "IMG269",
          "CodingSchemeDesignator": "L"
        }
],
      "Rows": 504,
      "SAR": 0.10010782883555,
      "SamplesPerPixel": 1,
      "ScanOptions": "FS",
      "ScanningSequence": "EP",
      "SequenceName": "*epfid2d1_72",
      "SequenceVariant": "SK",
      "SeriesDescription": "TASK_CD",
      "SeriesNumber": 12,
      "SeriesTime": "195202.938000",
      "SliceLocation": -55.694131237152,
      "SliceThickness": 3.0,
      "SmallestImagePixelValue": 0,
      "SmokingStatus": "UNKNOWN",
      "SoftwareVersions": "syngo MR E11",
      "SpacingBetweenSlices": 2.9999999899635,
      "SpecificCharacterSet": "ISO_IR 100",
      "StudyID": "CM",
      "StudyTime": "191717.501000",
      "TransmitCoilName": "Body",
      "VariableFlipAngleFlag": "N",
      "WindowCenterWidthExplanation": "Algo1",
      "dBdt": 0.0},
    "slices": {}
  },
  "time": {
    "samples": {
      "AcquisitionNumber": [1, 2, 3, 4, 5, 6, 7, 8, 9, 10, 11, 12, 13, 14, 15, 16, 17, 18, 19, 20, 21, 22, 23, 24, 25, 26, 27, 28, 29, 30, 31, 32, 33, 34, 35, 36, 37, 38, 39, 40, 41, 42, 43, 44, 45, 46, 47, 48, 49, 50, 51, 52, 53, 54, 55, 56, 57, 58, 59, 60, 61, 62, 63, 64, 65, 66, 67, 68, 69, 70, 71, 72, 73, 74, 75, 76, 77, 78, 79, 80, 81, 82, 83, 84, 85, 86, 87, 88, 89, 90, 91, 92, 93, 94, 95, 96, 97, 98, 99, 100, 101, 102, 103, 104, 105, 106, 107, 108, 109, 110, 111, 112, 113, 114, 115, 116, 117, 118, 119, 120, 121, 122, 123, 124, 125, 126, 127, 128, 129, 130, 131, 132],
      "AcquisitionTime": ["195055.010000", "195057.510000", "195100.010000", "195102.510000", "195105.010000", "195107.510000", "195110.010000", "195112.510000", "195115.010000", "195117.510000", "195120.010000", "195122.510000", "195125.010000", "195127.510000", "195130.010000", "195132.510000", "195135.010000", "195137.510000", "195140.010000", "195142.510000", "195145.010000", "195147.510000", "195150.010000", "195152.510000", "195155.010000", "195157.510000", "195200.010000", "195202.510000", "195205.010000", "195207.510000", "195210.010000", "195212.510000", "195215.010000", "195217.510000", "195220.010000", "195222.510000", "195225.010000", "195227.510000", "195230.010000", "195232.510000", "195235.010000", "195237.510000", "195240.010000", "195242.510000", "195245.010000", "195247.510000", "195250.010000", "195252.510000", "195255.010000", "195257.510000", "195300.010000", "195302.510000", "195305.010000", "195307.510000", "195310.010000", "195312.510000", "195315.010000", "195317.510000", "195320.010000", "195322.510000", "195325.010000", "195327.510000", "195330.010000", "195332.510000", "195335.010000", "195337.510000", "195340.010000", "195342.510000", "195345.010000", "195347.510000", "195350.010000", "195352.510000", "195355.010000", "195357.510000", "195400.010000", "195402.510000", "195405.010000", "195407.510000", "195410.010000", "195412.510000", "195415.010000", "195417.510000", "195420.010000", "195422.510000", "195425.010000", "195427.510000", "195430.010000", "195432.510000", "195435.010000", "195437.510000", "195440.010000", "195442.510000", "195445.010000", "195447.510000", "195450.010000", "195452.510000", "195455.010000", "195457.510000", "195500.010000", "195502.510000", "195505.010000", "195507.510000", "195510.010000", "195512.510000", "195515.010000", "195517.510000", "195520.010000", "195522.510000", "195525.010000", "195527.510000", "195530.010000", "195532.510000", "195535.010000", "195537.510000", "195540.010000", "195542.510000", "195545.010000", "195547.510000", "195550.010000", "195552.510000", "195555.010000", "195557.510000", "195600.010000", "195602.510000", "195605.010000", "195607.510000", "195610.010000", "195612.510000", "195615.010000", "195617.510000", "195620.010000", "195622.510000"],
      "ContentTime": ["195202.942000", "195202.945000", "195202.948000", "195202.951000", "195202.953000", "195202.956000", "195202.959000", "195202.961000", "195202.964000", "195202.966000", "195202.969000", "195202.972000", "195202.974000", "195202.977000", "195202.979000", "195202.982000", "195202.985000", "195202.987000", "195202.990000", "195202.993000", "195202.995000", "195202.998000", "195203.001000", "195203.004000", "195203.007000", "195203.009000", "195203.012000", "195302.937000", "195302.940000", "195302.942000", "195302.945000", "195302.948000", "195302.950000", "195302.953000", "195302.955000", "195302.958000", "195302.960000", "195302.963000", "195302.966000", "195302.968000", "195302.971000", "195302.974000", "195302.976000", "195302.979000", "195302.981000", "195302.984000", "195302.987000", "195302.989000", "195302.992000", "195302.995000", "195302.997000", "195402.938000", "195402.940000", "195402.943000", "195402.946000", "195402.949000", "195402.951000", "195402.954000", "195402.957000", "195402.959000", "195402.962000", "195402.964000", "195402.967000", "195402.970000", "195402.972000", "195402.975000", "195402.977000", "195402.980000", "195402.982000", "195402.985000", "195402.988000", "195402.990000", "195402.993000", "195402.996000", "195402.998000", "195502.937000", "195502.940000", "195502.951000", "195502.953000", "195502.956000", "195502.959000", "195502.961000", "195502.964000", "195502.967000", "195502.969000", "195502.972000", "195502.974000", "195502.977000", "195502.980000", "195502.983000", "195502.985000", "195502.988000", "195502.990000", "195502.993000", "195502.996000", "195502.998000", "195503.002000", "195503.005000", "195503.007000", "195602.938000", "195602.940000", "195602.943000", "195602.946000", "195602.948000", "195602.951000", "195602.954000", "195602.956000", "195602.959000", "195602.961000", "195602.964000", "195602.967000", "195602.969000", "195602.972000", "195602.975000", "195602.977000", "195602.980000", "195602.982000", "195602.985000", "195602.988000", "195602.990000", "195602.993000", "195602.996000", "195602.998000", "195624.276000", "195624.279000", "195624.282000", "195624.285000", "195624.287000", "195624.290000", "195624.293000", "195624.296000", "195624.298000"],
      "InstanceCreationTime": ["195202.942000", "195202.945000", "195202.948000", "195202.951000", "195202.953000", "195202.956000", "195202.959000", "195202.961000", "195202.964000", "195202.966000", "195202.969000", "195202.972000", "195202.974000", "195202.977000", "195202.979000", "195202.982000", "195202.985000", "195202.987000", "195202.990000", "195202.993000", "195202.995000", "195202.998000", "195203.001000", "195203.004000", "195203.007000", "195203.009000", "195203.012000", "195302.937000", "195302.940000", "195302.942000", "195302.945000", "195302.948000", "195302.950000", "195302.953000", "195302.955000", "195302.958000", "195302.960000", "195302.963000", "195302.966000", "195302.968000", "195302.971000", "195302.974000", "195302.976000", "195302.979000", "195302.981000", "195302.984000", "195302.987000", "195302.989000", "195302.992000", "195302.995000", "195302.997000", "195402.938000", "195402.940000", "195402.943000", "195402.946000", "195402.949000", "195402.951000", "195402.954000", "195402.957000", "195402.959000", "195402.962000", "195402.964000", "195402.967000", "195402.970000", "195402.972000", "195402.975000", "195402.977000", "195402.980000", "195402.982000", "195402.985000", "195402.988000", "195402.990000", "195402.993000", "195402.996000", "195402.998000", "195502.937000", "195502.940000", "195502.951000", "195502.953000", "195502.956000", "195502.959000", "195502.961000", "195502.964000", "195502.967000", "195502.969000", "195502.972000", "195502.974000", "195502.977000", "195502.980000", "195502.983000", "195502.985000", "195502.988000", "195502.990000", "195502.993000", "195502.996000", "195502.998000", "195503.002000", "195503.005000", "195503.007000", "195602.938000", "195602.940000", "195602.943000", "195602.946000", "195602.948000", "195602.951000", "195602.954000", "195602.956000", "195602.959000", "195602.961000", "195602.964000", "195602.967000", "195602.969000", "195602.972000", "195602.975000", "195602.977000", "195602.980000", "195602.982000", "195602.985000", "195602.988000", "195602.990000", "195602.993000", "195602.996000", "195602.998000", "195624.276000", "195624.279000", "195624.282000", "195624.285000", "195624.287000", "195624.290000", "195624.293000", "195624.296000", "195624.298000"],
      "InstanceNumber": [1, 2, 3, 4, 5, 6, 7, 8, 9, 10, 11, 12, 13, 14, 15, 16, 17, 18, 19, 20, 21, 22, 23, 24, 25, 26, 27, 28, 29, 30, 31, 32, 33, 34, 35, 36, 37, 38, 39, 40, 41, 42, 43, 44, 45, 46, 47, 48, 49, 50, 51, 52, 53, 54, 55, 56, 57, 58, 59, 60, 61, 62, 63, 64, 65, 66, 67, 68, 69, 70, 71, 72, 73, 74, 75, 76, 77, 78, 79, 80, 81, 82, 83, 84, 85, 86, 87, 88, 89, 90, 91, 92, 93, 94, 95, 96, 97, 98, 99, 100, 101, 102, 103, 104, 105, 106, 107, 108, 109, 110, 111, 112, 113, 114, 115, 116, 117, 118, 119, 120, 121, 122, 123, 124, 125, 126, 127, 128, 129, 130, 131, 132],
      "LargestImagePixelValue": [1919, 2255, 1746, 1631, 1649, 1722, 1722, 1582, 1689, 1647, 1691, 2074, 2225, 2257, 1681, 1827, 1729, 1832, 1822, 1718, 1705, 1761, 1725, 1697, 2147, 1754, 1818, 1710, 1750, 1741, 1785, 1661, 1781, 1862, 1797, 1699, 1851, 1878, 1885, 1752, 1676, 1698, 1687, 1704, 1770, 1673, 1836, 1766, 1771, 2534, 1698, 1718, 1905, 1770, 2184, 1730, 1611, 1641, 1758, 1935, 1673, 1594, 1751, 1696, 1816, 1973, 1570, 2102, 1732, 1954, 1766, 1728, 1668, 1672, 1789, 1622, 1577, 1884, 1827, 2176, 2189, 1846, 1708, 1732, 1742, 1862, 1734, 1716, 1745, 1823, 1736, 1752, 1710, 1695, 1878, 2364, 1693, 1699, 1717, 1660, 2043, 1766, 1664, 1696, 1908, 1774, 1762, 1709, 1863, 2112, 1869, 2141, 2315, 1678, 1734, 1961, 1874, 1663, 1670, 1690, 1804, 1698, 2011, 1722, 1617, 1699, 1957, 1803, 2463, 1713, 1698, 1749],
      "WindowCenter": [677.0, 676.0, 674.0, 675.0, 675.0, 676.0, 675.0, 673.0, 678.0, 676.0, 676.0, 676.0, 677.0, 676.0, 673.0, 676.0, 675.0, 675.0, 674.0, 674.0, 675.0, 673.0, 675.0, 674.0, 675.0, 673.0, 675.0, 675.0, 674.0, 673.0, 673.0, 673.0, 675.0, 674.0, 673.0, 672.0, 674.0, 673.0, 673.0, 673.0, 673.0, 672.0, 670.0, 673.0, 673.0, 673.0, 674.0, 672.0, 672.0, 676.0, 670.0, 669.0, 673.0, 672.0, 672.0, 671.0, 668.0, 673.0, 672.0, 669.0, 671.0, 672.0, 674.0, 673.0, 675.0, 673.0, 667.0, 675.0, 672.0, 672.0, 668.0, 672.0, 672.0, 672.0, 672.0, 671.0, 673.0, 675.0, 674.0, 674.0, 673.0, 671.0, 672.0, 673.0, 673.0, 674.0, 674.0, 673.0, 672.0, 673.0, 671.0, 674.0, 672.0, 673.0, 672.0, 673.0, 671.0, 673.0, 674.0, 672.0, 671.0, 672.0, 671.0, 670.0, 673.0, 671.0, 669.0, 673.0, 673.0, 674.0, 675.0, 675.0, 669.0, 670.0, 674.0, 673.0, 672.0, 672.0, 675.0, 663.0, 675.0, 672.0, 674.0, 672.0, 672.0, 676.0, 674.0, 671.0, 674.0, 670.0, 673.0, 673.0],
      "WindowWidth": [1443.0, 1441.0, 1436.0, 1439.0, 1440.0, 1442.0, 1438.0, 1435.0, 1446.0, 1443.0, 1443.0, 1442.0, 1443.0, 1442.0, 1434.0, 1442.0, 1440.0, 1438.0, 1436.0, 1438.0, 1440.0, 1435.0, 1439.0, 1437.0, 1440.0, 1433.0, 1439.0, 1438.0, 1437.0, 1436.0, 1436.0, 1435.0, 1439.0, 1438.0, 1435.0, 1433.0, 1438.0, 1436.0, 1435.0, 1435.0, 1435.0, 1432.0, 1428.0, 1434.0, 1435.0, 1436.0, 1435.0, 1433.0, 1432.0, 1440.0, 1427.0, 1425.0, 1436.0, 1434.0, 1433.0, 1430.0, 1423.0, 1434.0, 1432.0, 1425.0, 1430.0, 1433.0, 1437.0, 1435.0, 1439.0, 1434.0, 1420.0, 1441.0, 1434.0, 1431.0, 1424.0, 1433.0, 1433.0, 1432.0, 1432.0, 1430.0, 1436.0, 1441.0, 1437.0, 1438.0, 1435.0, 1429.0, 1432.0, 1435.0, 1434.0, 1437.0, 1437.0, 1436.0, 1434.0, 1435.0, 1430.0, 1437.0, 1433.0, 1435.0, 1434.0, 1435.0, 1431.0, 1434.0, 1437.0, 1433.0, 1430.0, 1434.0, 1430.0, 1428.0, 1435.0, 1431.0, 1424.0, 1435.0, 1436.0, 1436.0, 1439.0, 1438.0, 1425.0, 1428.0, 1438.0, 1434.0, 1433.0, 1432.0, 1439.0, 1410.0, 1441.0, 1431.0, 1437.0, 1432.0, 1432.0, 1441.0, 1437.0, 1430.0, 1437.0, 1428.0, 1434.0, 1434.0]
    },
    "slices": {}
  }
}