{
  "AcquisitionMatrixPE": 72,
  "AcquisitionNumber": 1,
  "AcquisitionTime": "21:05:41.160000",
  "BandwidthPerPixelPhaseEncode": 24.366,
  "BaseResolution": 72,
  "BodyPartExamined": "BRAIN",
  "CoilCombinationMethod": "Sum of Squares",
  "ConsistencyInfo": "N4_VE11C_LATEST_20160120",
  "ConversionSoftware": "dcm2niix",
  "ConversionSoftwareVersion": "v1.0.20220720",
  "DerivedVendorReportedEchoSpacing": 0.000570011,
  "DeviceSerialNumber": "45219",
  "DwellTime": 3.5e-06,
  "EchoTime": 0.03,
  "EchoTrainLength": 72,
  "EffectiveEchoSpacing": 0.000570011,
  "FlipAngle": 80,
  "HeudiconvVersion": "1.1.6",
  "ImageComments": "Reference volume for motion correction.",
  "ImageOrientationPatientDICOM": [0.997588, 0.0380117, -0.0580877, -0.0296077, 0.989816, 0.139243],
  "ImageOrientationText": "Tra>Cor(7.9)>Sag(-3.6)",
  "ImageType": [
    "ORIGINAL",
    "PRIMARY",
    "M",
    "ND",
    "NORM",
    "MOCO",
    "MOSAIC"
],
  "ImagingFrequency": 123.182,
  "InPlanePhaseEncodingDirectionDICOM": "COL",
  "InstitutionAddress": "First Avenue 660,New York,NYC,US,10016",
  "InstitutionName": "NYU LANGONE CBI",
  "InstitutionalDepartmentName": "Department",
  "MRAcquisitionType": "2D",
  "MagneticFieldStrength": 3,
  "Manufacturer": "Siemens",
  "ManufacturersModelName": "Skyra",
  "MatrixCoilMode": "SENSE",
  "Modality": "MR",
  "NonlinearGradientCorrection": false,
  "PartialFourier": 1,
  "PatientPosition": "HFS",
  "PercentPhaseFOV": 100,
  "PercentSampling": 100,
  "PhaseEncodingDirection": "j-",
  "PhaseEncodingSteps": 72,
  "PhaseResolution": 1,
  "PixelBandwidth": 1985,
  "ProcedureStepDescription": "MRI BRAIN WITHOUT IV CONTRAST",
  "ProtocolName": "TASK_CD_MoCo",
  "PulseSequenceDetails": "%SiemensSeq%\\ep2d_bold",
  "ReceiveCoilActiveElements": "HE1-4",
  "ReceiveCoilName": "HeadNeck_20",
  "ReconMatrixPE": 72,
  "RepetitionTime": 2.5,
  "SAR": 0.15711,
  "ScanOptions": "FS",
  "ScanningSequence": "EP",
  "SequenceName": "*epfid2d1_72",
  "SequenceVariant": "SK",
  "SeriesDescription": "MoCoSeries",
  "SeriesNumber": 13,
  "ShimSetting": [-888, -7051, 5287, 593, -276, 326, 224, -53],
  "SliceThickness": 3,
  "SliceTiming": [1.24, 0, 1.305, 0.065, 1.37, 0.13, 1.435, 0.195, 1.5, 0.26, 1.565, 0.325, 1.63, 0.39, 1.695, 0.455, 1.76, 0.52, 1.8275, 0.5875, 1.8925, 0.6525, 1.9575, 0.7175, 2.0225, 0.7825, 2.0875, 0.8475, 2.1525, 0.9125, 2.2175, 0.9775, 2.2825, 1.0425, 2.3475, 1.1075, 2.415, 1.175],
  "SoftwareVersions": "syngo MR E11",
  "SpacingBetweenSlices": 3,
  "StationName": "MRC45219",
  "TaskName": "cd",
  "TotalReadoutTime": 0.0404708,
  "TxRefAmp": 423.167,
  "dcmmeta_affine": [
    [-2.992762565612793, -0.0888231098651886, -0.18836696445941925, 107.90094757080078],
    [-0.11403509974479675, 2.9694466590881348, 0.41156095266342163, -112.67994689941406],
    [-0.17426317930221558, -0.4177282452583313, 2.9656593799591064, 16.063602447509766],
    [0.0, 0.0, 0.0, 1.0]
],
  "dcmmeta_reorient_transform": [
    [0.0, -1.0, 0.0, 71.0],
    [1.0, 0.0, 0.0, 0.0],
    [0.0, 0.0, 1.0, 0.0],
    [0.0, 0.0, 0.0, 1.0]
],
  "dcmmeta_shape": [72, 72, 38, 132],
  "dcmmeta_slice_dim": 2,
  "dcmmeta_version": 0.6,
  "global": {
    "const": {
      "AcquisitionMatrix": [72, 0, 0, 72],
      "AngioFlag": "N",
      "BitsAllocated": 16,
      "BitsStored": 12,
      "BodyPartExamined": "BRAIN",
      "Columns": 504,
      "CountryOfResidence": "United States of America [1]",
      "EchoNumbers": 1,
      "EchoTime": 30.0,
      "EchoTrainLength": 72,
      "FlipAngle": 80.0,
      "HighBit": 11,
      "ImageOrientationPatient": [0.99758755335139, 0.03801169982782, -0.0580877274009, -0.0296077039733, 0.98981555872147, 0.13924275054143],
      "ImagePositionPatient": [-728.84544900646, -764.18283325977, -66.183558383707],
      "ImageType": [
        "ORIGINAL",
        "PRIMARY",
        "M",
        "ND",
        "NORM",
        "MOCO",
        "MOSAIC"
],
      "ImagedNucleus": "1H",
      "ImagingFrequency": 123.181858,
      "InPlanePhaseEncodingDirection": "COL",
      "MRAcquisitionType": "2D",
      "MagneticFieldStrength": 3.0,
      "Manufacturer": "SIEMENS",
      "ManufacturerModelName": "Skyra",
      "Modality": "MR",
      "NumberOfAverages": 1.0,
      "NumberOfPhaseEncodingSteps": 72,
      "PercentPhaseFieldOfView": 100.0,
      "PercentSampling": 100.0,
      "PerformedProcedureStepStartTime": "203716.050000",
      "PhotometricInterpretation": "MONOCHROME2",
      "PixelBandwidth": 1985.0,
      "PixelRepresentation": 0,
      "PixelSpacing": [3.0, 3.0],
      "PregnancyStatus": 4,
      "ProcedureCodeSequence": [
        {
          "CodeMeaning": "MRI BRAIN WITHOUT IV CONTRAST",
          "CodeValue": "IMG269",
          "CodingSchemeDesignator": "L"
        }
],
      "ProtocolName": "TASK_CD",
      "RepetitionTime": 2500.0,
      "RequestAttributesSequence": [
        {
          "ScheduledProcedureStepDescription": "MRI BRAIN WITHOUT IV CONTRAST",
          "ScheduledProcedureStepID": "E9554153",
          "ScheduledProtocolCodeSequence": [
            {
              "CodeMeaning": "MRI BRAIN WITHOUT IV CONTRAST",
              "CodeValue": "651061",
              "CodingSchemeDesignator": "L"
            }
]
        }
],
      "RequestedProcedureCodeSequence": [
        {
          "CodeMeaning": "MRI BRAIN WITHOUT IV CONTRAST",
          "CodeValue": "IMG269",
          "CodingSchemeDesignator": "L"
        }
],
      "Rows": 504,
      "SAR": 0.1571096462564,
      "SamplesPerPixel": 1,
      "ScanOptions": "FS",
      "ScanningSequence": "EP",
      "SequenceName": "*epfid2d1_72",
      "SequenceVariant": "SK",
      "SeriesDescription": "MoCoSeries",
      "SeriesNumber": 13,
      "SeriesTime": "210649.984000",
      "SliceLocation": -6.3534896161459,
      "SliceThickness": 3.0,
      "SmallestImagePixelValue": 0,
      "SmokingStatus": "UNKNOWN",
      "SoftwareVersions": "syngo MR E11",
      "SpacingBetweenSlices": 2.999999919681,
      "SpecificCharacterSet": "ISO_IR 100",
      "StudyTime": "203715.879000",
      "TransmitCoilName": "Body",
      "VariableFlipAngleFlag": "N",
      "WindowCenterWidthExplanation": "Algo1",
      "dBdt": 0.0},
    "slices": {}
  },
  "time": {
    "samples": {
      "AcquisitionNumber": [1, 2, 3, 4, 5, 6, 7, 8, 9, 10, 11, 12, 13, 14, 15, 16, 17, 18, 19, 20, 21, 22, 23, 24, 25, 26, 27, 28, 29, 30, 31, 32, 33, 34, 35, 36, 37, 38, 39, 40, 41, 42, 43, 44, 45, 46, 47, 48, 49, 50, 51, 52, 53, 54, 55, 56, 57, 58, 59, 60, 61, 62, 63, 64, 65, 66, 67, 68, 69, 70, 71, 72, 73, 74, 75, 76, 77, 78, 79, 80, 81, 82, 83, 84, 85, 86, 87, 88, 89, 90, 91, 92, 93, 94, 95, 96, 97, 98, 99, 100, 101, 102, 103, 104, 105, 106, 107, 108, 109, 110, 111, 112, 113, 114, 115, 116, 117, 118, 119, 120, 121, 122, 123, 124, 125, 126, 127, 128, 129, 130, 131, 132],
      "AcquisitionTime": ["210541.160000", "210543.660000", "210546.160000", "210548.660000", "210551.160000", "210553.660000", "210556.160000", "210558.660000", "210601.160000", "210603.660000", "210606.160000", "210608.660000", "210611.160000", "210613.660000", "210616.160000", "210618.660000", "210621.160000", "210623.660000", "210626.160000", "210628.660000", "210631.160000", "210633.660000", "210636.160000", "210638.660000", "210641.160000", "210643.660000", "210646.160000", "210648.660000", "210651.160000", "210653.660000", "210656.160000", "210658.660000", "210701.160000", "210703.660000", "210706.160000", "210708.660000", "210711.160000", "210713.660000", "210716.160000", "210718.660000", "210721.160000", "210723.660000", "210726.160000", "210728.660000", "210731.160000", "210733.660000", "210736.160000", "210738.660000", "210741.160000", "210743.660000", "210746.160000", "210748.660000", "210751.160000", "210753.660000", "210756.160000", "210758.660000", "210801.160000", "210803.660000", "210806.160000", "210808.660000", "210811.160000", "210813.660000", "210816.160000", "210818.660000", "210821.160000", "210823.660000", "210826.160000", "210828.660000", "210831.160000", "210833.660000", "210836.160000", "210838.660000", "210841.160000", "210843.660000", "210846.160000", "210848.660000", "210851.160000", "210853.660000", "210856.160000", "210858.660000", "210901.160000", "210903.660000", "210906.160000", "210908.660000", "210911.160000", "210913.660000", "210916.160000", "210918.660000", "210921.160000", "210923.660000", "210926.160000", "210928.660000", "210931.160000", "210933.660000", "210936.160000", "210938.660000", "210941.160000", "210943.660000", "210946.160000", "210948.660000", "210951.160000", "210953.660000", "210956.160000", "210958.660000", "211001.160000", "211003.660000", "211006.160000", "211008.660000", "211011.160000", "211013.660000", "211016.160000", "211018.660000", "211021.160000", "211023.660000", "211026.160000", "211028.660000", "211031.160000", "211033.660000", "211036.160000", "211038.660000", "211041.160000", "211043.660000", "211046.160000", "211048.660000", "211051.160000", "211053.660000", "211056.160000", "211058.660000", "211101.160000", "211103.660000", "211106.160000", "211108.660000"],
      "ContentTime": ["210649.987000", "210649.990000", "210649.993000", "210649.996000", "210649.998000", "210650.001000", "210650.004000", "210650.007000", "210650.009000", "210650.012000", "210650.015000", "210650.018000", "210650.021000", "210650.024000", "210650.026000", "210650.031000", "210650.034000", "210650.037000", "210650.039000", "210650.042000", "210650.047000", "210650.050000", "210650.053000", "210650.056000", "210650.058000", "210650.061000", "210650.064000", "210749.955000", "210749.957000", "210749.960000", "210749.963000", "210749.966000", "210749.968000", "210749.971000", "210749.974000", "210749.977000", "210749.980000", "210749.982000", "210749.985000", "210749.988000", "210749.991000", "210749.994000", "210749.997000", "210750.000000", "210750.003000", "210750.006000", "210750.009000", "210750.012000", "210750.014000", "210750.017000", "210750.021000", "210849.948000", "210849.951000", "210849.954000", "210849.957000", "210849.959000", "210849.962000", "210849.965000", "210849.968000", "210849.970000", "210849.973000", "210849.976000", "210849.979000", "210849.981000", "210849.984000", "210849.987000", "210849.990000", "210849.992000", "210849.995000", "210849.998000", "210850.002000", "210850.005000", "210850.007000", "210850.010000", "210850.013000", "210949.953000", "210949.956000", "210949.958000", "210949.961000", "210949.964000", "210949.967000", "210949.969000", "210949.972000", "210949.975000", "210949.978000", "210949.981000", "210949.984000", "210949.986000", "210949.989000", "210949.992000", "210949.995000", "210949.998000", "210950.001000", "210950.004000", "210950.007000", "210950.010000", "210950.012000", "210950.015000", "210950.018000", "211049.963000", "211049.966000", "211049.968000", "211049.971000", "211049.974000", "211049.977000", "211049.979000", "211049.982000", "211049.985000", "211049.988000", "211049.991000", "211049.993000", "211049.996000", "211050.000000", "211050.003000", "211050.006000", "211050.008000", "211050.011000", "211050.014000", "211050.017000", "211050.020000", "211050.022000", "211050.026000", "211050.031000", "211110.186000", "211110.189000", "211110.192000", "211110.195000", "211110.198000", "211110.200000", "211110.204000", "211110.206000", "211110.209000"],
      "InstanceCreationTime": ["210649.987000", "210649.990000", "210649.993000", "210649.996000", "210649.998000", "210650.001000", "210650.004000", "210650.007000", "210650.009000", "210650.012000", "210650.015000", "210650.018000", "210650.021000", "210650.024000", "210650.026000", "210650.031000", "210650.034000", "210650.037000", "210650.039000", "210650.042000", "210650.047000", "210650.050000", "210650.053000", "210650.056000", "210650.058000", "210650.061000", "210650.064000", "210749.955000", "210749.957000", "210749.960000", "210749.963000", "210749.966000", "210749.968000", "210749.971000", "210749.974000", "210749.977000", "210749.980000", "210749.982000", "210749.985000", "210749.988000", "210749.991000", "210749.994000", "210749.997000", "210750.000000", "210750.003000", "210750.006000", "210750.009000", "210750.012000", "210750.014000", "210750.017000", "210750.021000", "210849.948000", "210849.951000", "210849.954000", "210849.957000", "210849.959000", "210849.962000", "210849.965000", "210849.968000", "210849.970000", "210849.973000", "210849.976000", "210849.979000", "210849.981000", "210849.984000", "210849.987000", "210849.990000", "210849.992000", "210849.995000", "210849.998000", "210850.002000", "210850.005000", "210850.007000", "210850.010000", "210850.013000", "210949.953000", "210949.956000", "210949.958000", "210949.961000", "210949.964000", "210949.967000", "210949.969000", "210949.972000", "210949.975000", "210949.978000", "210949.981000", "210949.984000", "210949.986000", "210949.989000", "210949.992000", "210949.995000", "210949.998000", "210950.001000", "210950.004000", "210950.007000", "210950.010000", "210950.012000", "210950.015000", "210950.018000", "211049.963000", "211049.966000", "211049.968000", "211049.971000", "211049.974000", "211049.977000", "211049.979000", "211049.982000", "211049.985000", "211049.988000", "211049.991000", "211049.993000", "211049.996000", "211050.000000", "211050.003000", "211050.006000", "211050.008000", "211050.011000", "211050.014000", "211050.017000", "211050.020000", "211050.022000", "211050.026000", "211050.031000", "211110.186000", "211110.189000", "211110.192000", "211110.195000", "211110.198000", "211110.200000", "211110.204000", "211110.206000", "211110.209000"],
      "InstanceNumber": [1, 2, 3, 4, 5, 6, 7, 8, 9, 10, 11, 12, 13, 14, 15, 16, 17, 18, 19, 20, 21, 22, 23, 24, 25, 26, 27, 28, 29, 30, 31, 32, 33, 34, 35, 36, 37, 38, 39, 40, 41, 42, 43, 44, 45, 46, 47, 48, 49, 50, 51, 52, 53, 54, 55, 56, 57, 58, 59, 60, 61, 62, 63, 64, 65, 66, 67, 68, 69, 70, 71, 72, 73, 74, 75, 76, 77, 78, 79, 80, 81, 82, 83, 84, 85, 86, 87, 88, 89, 90, 91, 92, 93, 94, 95, 96, 97, 98, 99, 100, 101, 102, 103, 104, 105, 106, 107, 108, 109, 110, 111, 112, 113, 114, 115, 116, 117, 118, 119, 120, 121, 122, 123, 124, 125, 126, 127, 128, 129, 130, 131, 132],
      "LargestImagePixelValue": [2289, 1881, 1843, 1845, 1897, 1931, 2089, 1893, 1828, 1990, 1848, 2002, 2157, 1853, 1874, 1902, 1898, 1970, 1857, 1830, 1857, 1837, 2093, 1831, 1839, 1817, 1848, 1817, 1862, 1872, 1831, 1823, 1843, 1827, 1894, 1813, 1847, 1899, 1797, 1857, 1848, 1888, 1842, 1889, 1972, 1892, 1868, 1858, 1849, 1854, 2103, 1813, 1844, 2061, 1901, 1845, 1810, 1835, 1835, 1915, 1858, 1842, 1789, 1785, 1840, 1828, 1886, 1911, 1880, 1786, 1759, 1883, 1820, 1864, 1882, 1933, 1841, 1832, 1863, 1860, 1819, 1839, 1857, 1840, 1819, 1858, 2067, 1890, 1836, 1790, 1805, 1845, 1870, 2027, 1853, 1920, 1907, 1853, 1831, 1864, 1799, 1806, 1820, 1743, 1906, 2146, 1852, 1918, 1879, 1830, 1889, 1828, 1876, 1843, 1879, 2053, 1873, 1847, 1887, 1816, 1842, 1858, 1849, 1893, 1874, 1891, 1927, 1857, 1965, 1878, 1835, 1835],
      "WindowCenter": [684.0, 680.0, 680.0, 680.0, 682.0, 682.0, 682.0, 682.0, 681.0, 680.0, 681.0, 682.0, 682.0, 681.0, 680.0, 679.0, 678.0, 679.0, 677.0, 679.0, 679.0, 679.0, 680.0, 681.0, 681.0, 680.0, 678.0, 679.0, 679.0, 679.0, 679.0, 679.0, 681.0, 679.0, 678.0, 678.0, 678.0, 678.0, 679.0, 681.0, 681.0, 680.0, 680.0, 680.0, 680.0, 679.0, 679.0, 679.0, 679.0, 679.0, 678.0, 678.0, 679.0, 679.0, 681.0, 681.0, 680.0, 682.0, 683.0, 680.0, 682.0, 682.0, 678.0, 679.0, 681.0, 679.0, 678.0, 677.0, 677.0, 678.0, 680.0, 681.0, 681.0, 680.0, 680.0, 678.0, 679.0, 680.0, 679.0, 682.0, 681.0, 679.0, 682.0, 680.0, 682.0, 682.0, 680.0, 680.0, 680.0, 680.0, 682.0, 681.0, 680.0, 679.0, 680.0, 680.0, 680.0, 679.0, 681.0, 683.0, 682.0, 682.0, 682.0, 680.0, 682.0, 682.0, 681.0, 680.0, 678.0, 676.0, 676.0, 675.0, 677.0, 678.0, 678.0, 678.0, 678.0, 678.0, 678.0, 679.0, 679.0, 681.0, 680.0, 679.0, 681.0, 682.0, 680.0, 679.0, 679.0, 680.0, 680.0, 683.0],
      "WindowWidth": [1454.0, 1446.0, 1445.0, 1446.0, 1449.0, 1451.0, 1450.0, 1450.0, 1448.0, 1446.0, 1447.0, 1449.0, 1449.0, 1447.0, 1446.0, 1444.0, 1441.0, 1442.0, 1437.0, 1442.0, 1444.0, 1443.0, 1444.0, 1447.0, 1446.0, 1444.0, 1440.0, 1443.0, 1443.0, 1444.0, 1441.0, 1442.0, 1447.0, 1442.0, 1441.0, 1439.0, 1441.0, 1440.0, 1442.0, 1447.0, 1446.0, 1445.0, 1445.0, 1444.0, 1444.0, 1442.0, 1442.0, 1443.0, 1442.0, 1442.0, 1439.0, 1440.0, 1443.0, 1442.0, 1448.0, 1448.0, 1446.0, 1450.0, 1452.0, 1446.0, 1450.0, 1449.0, 1440.0, 1444.0, 1446.0, 1442.0, 1439.0, 1439.0, 1437.0, 1440.0, 1444.0, 1447.0, 1446.0, 1445.0, 1445.0, 1441.0, 1442.0, 1445.0, 1442.0, 1450.0, 1447.0, 1443.0, 1449.0, 1443.0, 1449.0, 1449.0, 1443.0, 1444.0, 1444.0, 1444.0, 1450.0, 1448.0, 1446.0, 1442.0, 1445.0, 1443.0, 1445.0, 1443.0, 1448.0, 1451.0, 1450.0, 1450.0, 1449.0, 1445.0, 1449.0, 1449.0, 1448.0, 1445.0, 1440.0, 1435.0, 1434.0, 1434.0, 1436.0, 1439.0, 1440.0, 1440.0, 1440.0, 1440.0, 1439.0, 1443.0, 1443.0, 1446.0, 1445.0, 1442.0, 1448.0, 1449.0, 1445.0, 1443.0, 1443.0, 1444.0, 1446.0, 1452.0]
    },
    "slices": {}
  }
}