{
  "AcquisitionMatrixPE": 72,
  "AcquisitionNumber": 1,
  "AcquisitionTime": "20:47:30.965000",
  "BandwidthPerPixelPhaseEncode": 24.366,
  "BaseResolution": 72,
  "BodyPartExamined": "BRAIN",
  "CoilCombinationMethod": "Sum of Squares",
  "ConsistencyInfo": "N4_VE11C_LATEST_20160120",
  "ConversionSoftware": "dcm2niix",
  "ConversionSoftwareVersion": "v1.0.20220720",
  "DerivedVendorReportedEchoSpacing": 0.000570011,
  "DeviceSerialNumber": "45219",
  "DwellTime": 3.5e-06,
  "EchoTime": 0.03,
  "EchoTrainLength": 72,
  "EffectiveEchoSpacing": 0.000570011,
  "FlipAngle": 80,
  "HeudiconvVersion": "1.1.6",
  "ImageComments": "Reference volume for motion correction.",
  "ImageOrientationPatientDICOM": [0.997588, 0.0380117, -0.0580877, -0.0296077, 0.989816, 0.139243],
  "ImageOrientationText": "Tra>Cor(7.9)>Sag(-3.6)",
  "ImageType": [
    "ORIGINAL",
    "PRIMARY",
    "M",
    "ND",
    "NORM",
    "MOCO",
    "MOSAIC"
],
  "ImagingFrequency": 123.182,
  "InPlanePhaseEncodingDirectionDICOM": "COL",
  "InstitutionAddress": "First Avenue 660,New York,NYC,US,10016",
  "InstitutionName": "NYU LANGONE CBI",
  "InstitutionalDepartmentName": "Department",
  "MRAcquisitionType": "2D",
  "MagneticFieldStrength": 3,
  "Manufacturer": "Siemens",
  "ManufacturersModelName": "Skyra",
  "MatrixCoilMode": "SENSE",
  "Modality": "MR",
  "NonlinearGradientCorrection": false,
  "PartialFourier": 1,
  "PatientPosition": "HFS",
  "PercentPhaseFOV": 100,
  "PercentSampling": 100,
  "PhaseEncodingDirection": "j-",
  "PhaseEncodingSteps": 72,
  "PhaseResolution": 1,
  "PixelBandwidth": 1985,
  "ProcedureStepDescription": "MRI BRAIN WITHOUT IV CONTRAST",
  "ProtocolName": "REST_1_MoCo",
  "PulseSequenceDetails": "%SiemensSeq%\\ep2d_bold",
  "ReceiveCoilActiveElements": "HE1-4",
  "ReceiveCoilName": "HeadNeck_20",
  "ReconMatrixPE": 72,
  "RepetitionTime": 2.5,
  "SAR": 0.157053,
  "ScanOptions": "FS",
  "ScanningSequence": "EP",
  "SequenceName": "*epfid2d1_72",
  "SequenceVariant": "SK",
  "SeriesDescription": "MoCoSeries",
  "SeriesNumber": 7,
  "ShimSetting": [-888, -7051, 5287, 593, -276, 326, 224, -53],
  "SliceThickness": 3,
  "SliceTiming": [1.24, 0, 1.3075, 0.0675, 1.3725, 0.1325, 1.4375, 0.1975, 1.5025, 0.2625, 1.5675, 0.3275, 1.6325, 0.3925, 1.6975, 0.4575, 1.7625, 0.5225, 1.8275, 0.5875, 1.8925, 0.6525, 1.96, 0.72, 2.025, 0.785, 2.09, 0.85, 2.155, 0.915, 2.22, 0.98, 2.285, 1.045, 2.35, 1.11, 2.415, 1.175],
  "SoftwareVersions": "syngo MR E11",
  "SpacingBetweenSlices": 3,
  "StationName": "MRC45219",
  "TaskName": "rest",
  "TotalReadoutTime": 0.0404708,
  "TxRefAmp": 423.167,
  "dcmmeta_affine": [
    [-2.992762565612793, -0.0888231098651886, -0.18836696445941925, 107.90094757080078],
    [-0.11403509974479675, 2.9694466590881348, 0.41156095266342163, -112.67994689941406],
    [-0.17426317930221558, -0.4177282452583313, 2.9656593799591064, 16.063602447509766],
    [0.0, 0.0, 0.0, 1.0]
],
  "dcmmeta_reorient_transform": [
    [0.0, -1.0, 0.0, 71.0],
    [1.0, 0.0, 0.0, 0.0],
    [0.0, 0.0, 1.0, 0.0],
    [0.0, 0.0, 0.0, 1.0]
],
  "dcmmeta_shape": [72, 72, 38, 122],
  "dcmmeta_slice_dim": 2,
  "dcmmeta_version": 0.6,
  "global": {
    "const": {
      "AcquisitionMatrix": [72, 0, 0, 72],
      "AngioFlag": "N",
      "BitsAllocated": 16,
      "BitsStored": 12,
      "BodyPartExamined": "BRAIN",
      "Columns": 504,
      "CountryOfResidence": "United States of America [1]",
      "EchoNumbers": 1,
      "EchoTime": 30.0,
      "EchoTrainLength": 72,
      "FlipAngle": 80.0,
      "HighBit": 11,
      "ImageOrientationPatient": [0.99758755335139, 0.03801169982782, -0.0580877274009, -0.0296077039733, 0.98981555872147, 0.13924275054143],
      "ImagePositionPatient": [-728.84544900646, -764.18283325977, -66.183558383707],
      "ImageType": [
        "ORIGINAL",
        "PRIMARY",
        "M",
        "ND",
        "NORM",
        "MOCO",
        "MOSAIC"
],
      "ImagedNucleus": "1H",
      "ImagingFrequency": 123.181771,
      "InPlanePhaseEncodingDirection": "COL",
      "MRAcquisitionType": "2D",
      "MagneticFieldStrength": 3.0,
      "Manufacturer": "SIEMENS",
      "ManufacturerModelName": "Skyra",
      "Modality": "MR",
      "NumberOfAverages": 1.0,
      "NumberOfPhaseEncodingSteps": 72,
      "PercentPhaseFieldOfView": 100.0,
      "PercentSampling": 100.0,
      "PerformedProcedureStepStartTime": "203716.050000",
      "PhotometricInterpretation": "MONOCHROME2",
      "PixelBandwidth": 1985.0,
      "PixelRepresentation": 0,
      "PixelSpacing": [3.0, 3.0],
      "PregnancyStatus": 4,
      "ProcedureCodeSequence": [
        {
          "CodeMeaning": "MRI BRAIN WITHOUT IV CONTRAST",
          "CodeValue": "IMG269",
          "CodingSchemeDesignator": "L"
        }
],
      "ProtocolName": "REST_1",
      "RepetitionTime": 2500.0,
      "RequestAttributesSequence": [
        {
          "ScheduledProcedureStepDescription": "MRI BRAIN WITHOUT IV CONTRAST",
          "ScheduledProcedureStepID": "E9554153",
          "ScheduledProtocolCodeSequence": [
            {
              "CodeMeaning": "MRI BRAIN WITHOUT IV CONTRAST",
              "CodeValue": "651061",
              "CodingSchemeDesignator": "L"
            }
]
        }
],
      "RequestedProcedureCodeSequence": [
        {
          "CodeMeaning": "MRI BRAIN WITHOUT IV CONTRAST",
          "CodeValue": "IMG269",
          "CodingSchemeDesignator": "L"
        }
],
      "Rows": 504,
      "SAR": 0.15705318660919,
      "SamplesPerPixel": 1,
      "ScanOptions": "FS",
      "ScanningSequence": "EP",
      "SequenceName": "*epfid2d1_72",
      "SequenceVariant": "SK",
      "SeriesDescription": "MoCoSeries",
      "SeriesNumber": 7,
      "SeriesTime": "204829.963000",
      "SliceLocation": -6.3534896161459,
      "SliceThickness": 3.0,
      "SmallestImagePixelValue": 0,
      "SmokingStatus": "UNKNOWN",
      "SoftwareVersions": "syngo MR E11",
      "SpacingBetweenSlices": 2.999999919681,
      "SpecificCharacterSet": "ISO_IR 100",
      "StudyTime": "203715.879000",
      "TransmitCoilName": "Body",
      "VariableFlipAngleFlag": "N",
      "WindowCenterWidthExplanation": "Algo1",
      "dBdt": 0.0},
    "slices": {}
  },
  "time": {
    "samples": {
      "AcquisitionNumber": [1, 2, 3, 4, 5, 6, 7, 8, 9, 10, 11, 12, 13, 14, 15, 16, 17, 18, 19, 20, 21, 22, 23, 24, 25, 26, 27, 28, 29, 30, 31, 32, 33, 34, 35, 36, 37, 38, 39, 40, 41, 42, 43, 44, 45, 46, 47, 48, 49, 50, 51, 52, 53, 54, 55, 56, 57, 58, 59, 60, 61, 62, 63, 64, 65, 66, 67, 68, 69, 70, 71, 72, 73, 74, 75, 76, 77, 78, 79, 80, 81, 82, 83, 84, 85, 86, 87, 88, 89, 90, 91, 92, 93, 94, 95, 96, 97, 98, 99, 100, 101, 102, 103, 104, 105, 106, 107, 108, 109, 110, 111, 112, 113, 114, 115, 116, 117, 118, 119, 120, 121, 122],
      "AcquisitionTime": ["204730.965000", "204733.465000", "204735.965000", "204738.465000", "204740.965000", "204743.465000", "204745.965000", "204748.465000", "204750.965000", "204753.465000", "204755.965000", "204758.465000", "204800.965000", "204803.465000", "204805.965000", "204808.465000", "204810.965000", "204813.465000", "204815.965000", "204818.465000", "204820.965000", "204823.465000", "204825.965000", "204828.465000", "204830.965000", "204833.465000", "204835.965000", "204838.465000", "204840.965000", "204843.465000", "204845.965000", "204848.465000", "204850.965000", "204853.465000", "204855.965000", "204858.465000", "204900.965000", "204903.465000", "204905.965000", "204908.465000", "204910.965000", "204913.465000", "204915.965000", "204918.465000", "204920.965000", "204923.465000", "204925.965000", "204928.465000", "204930.965000", "204933.465000", "204935.965000", "204938.465000", "204940.965000", "204943.465000", "204945.965000", "204948.465000", "204950.965000", "204953.465000", "204955.965000", "204958.465000", "205000.965000", "205003.465000", "205005.965000", "205008.465000", "205010.965000", "205013.465000", "205015.965000", "205018.465000", "205020.965000", "205023.465000", "205025.965000", "205028.465000", "205030.965000", "205033.465000", "205035.965000", "205038.465000", "205040.965000", "205043.465000", "205045.965000", "205048.465000", "205050.965000", "205053.465000", "205055.965000", "205058.465000", "205100.965000", "205103.465000", "205105.965000", "205108.465000", "205110.965000", "205113.465000", "205115.965000", "205118.465000", "205120.965000", "205123.465000", "205125.965000", "205128.465000", "205130.965000", "205133.465000", "205135.965000", "205138.465000", "205140.965000", "205143.465000", "205145.965000", "205148.465000", "205150.965000", "205153.465000", "205155.965000", "205158.465000", "205200.965000", "205203.465000", "205205.965000", "205208.465000", "205210.965000", "205213.465000", "205215.965000", "205218.465000", "205220.965000", "205223.465000", "205225.965000", "205228.465000", "205230.965000", "205233.465000"],
      "ContentTime": ["204829.965000", "204829.968000", "204829.971000", "204829.974000", "204829.977000", "204829.980000", "204829.983000", "204829.985000", "204829.988000", "204829.991000", "204829.994000", "204829.996000", "204830.000000", "204830.003000", "204830.006000", "204830.008000", "204830.014000", "204830.017000", "204830.020000", "204830.023000", "204830.025000", "204830.028000", "204830.031000", "204929.962000", "204929.965000", "204929.968000", "204929.971000", "204929.973000", "204929.976000", "204929.979000", "204929.982000", "204929.984000", "204929.987000", "204929.990000", "204929.993000", "204929.995000", "204929.998000", "204930.012000", "204930.015000", "204930.018000", "204930.021000", "204930.030000", "204930.032000", "204930.035000", "204930.038000", "204930.041000", "204930.043000", "205029.943000", "205029.946000", "205029.949000", "205029.952000", "205029.963000", "205029.966000", "205029.968000", "205029.971000", "205029.974000", "205029.977000", "205029.980000", "205029.982000", "205029.985000", "205029.988000", "205029.991000", "205029.993000", "205029.996000", "205030.000000", "205030.003000", "205030.005000", "205030.008000", "205030.012000", "205030.015000", "205030.017000", "205129.949000", "205129.952000", "205129.955000", "205129.957000", "205129.960000", "205129.963000", "205129.966000", "205129.968000", "205129.971000", "205129.974000", "205129.977000", "205129.979000", "205129.982000", "205129.985000", "205129.988000", "205129.991000", "205129.994000", "205129.996000", "205130.000000", "205130.003000", "205130.006000", "205130.008000", "205130.011000", "205130.014000", "205229.947000", "205229.950000", "205229.953000", "205229.956000", "205229.958000", "205229.961000", "205229.964000", "205229.967000", "205229.970000", "205229.973000", "205229.975000", "205229.978000", "205229.981000", "205229.984000", "205229.987000", "205229.989000", "205229.992000", "205229.995000", "205229.998000", "205230.001000", "205230.004000", "205230.007000", "205230.010000", "205230.013000", "205235.205000", "205235.212000", "205235.223000"],
      "InstanceCreationTime": ["204829.965000", "204829.968000", "204829.971000", "204829.974000", "204829.977000", "204829.980000", "204829.983000", "204829.985000", "204829.988000", "204829.991000", "204829.994000", "204829.996000", "204830.000000", "204830.003000", "204830.006000", "204830.008000", "204830.014000", "204830.017000", "204830.020000", "204830.023000", "204830.025000", "204830.028000", "204830.031000", "204929.962000", "204929.965000", "204929.968000", "204929.971000", "204929.973000", "204929.976000", "204929.979000", "204929.982000", "204929.984000", "204929.987000", "204929.990000", "204929.993000", "204929.995000", "204929.998000", "204930.012000", "204930.015000", "204930.018000", "204930.021000", "204930.030000", "204930.032000", "204930.035000", "204930.038000", "204930.041000", "204930.043000", "205029.943000", "205029.946000", "205029.949000", "205029.952000", "205029.963000", "205029.966000", "205029.968000", "205029.971000", "205029.974000", "205029.977000", "205029.980000", "205029.982000", "205029.985000", "205029.988000", "205029.991000", "205029.993000", "205029.996000", "205030.000000", "205030.003000", "205030.005000", "205030.008000", "205030.012000", "205030.015000", "205030.017000", "205129.949000", "205129.952000", "205129.955000", "205129.957000", "205129.960000", "205129.963000", "205129.966000", "205129.968000", "205129.971000", "205129.974000", "205129.977000", "205129.979000", "205129.982000", "205129.985000", "205129.988000", "205129.991000", "205129.994000", "205129.996000", "205130.000000", "205130.003000", "205130.006000", "205130.008000", "205130.011000", "205130.014000", "205229.947000", "205229.950000", "205229.953000", "205229.956000", "205229.958000", "205229.961000", "205229.964000", "205229.967000", "205229.970000", "205229.973000", "205229.975000", "205229.978000", "205229.981000", "205229.984000", "205229.987000", "205229.989000", "205229.992000", "205229.995000", "205229.998000", "205230.001000", "205230.004000", "205230.007000", "205230.010000", "205230.013000", "205235.205000", "205235.212000", "205235.223000"],
      "InstanceNumber": [1, 2, 3, 4, 5, 6, 7, 8, 9, 10, 11, 12, 13, 14, 15, 16, 17, 18, 19, 20, 21, 22, 23, 24, 25, 26, 27, 28, 29, 30, 31, 32, 33, 34, 35, 36, 37, 38, 39, 40, 41, 42, 43, 44, 45, 46, 47, 48, 49, 50, 51, 52, 53, 54, 55, 56, 57, 58, 59, 60, 61, 62, 63, 64, 65, 66, 67, 68, 69, 70, 71, 72, 73, 74, 75, 76, 77, 78, 79, 80, 81, 82, 83, 84, 85, 86, 87, 88, 89, 90, 91, 92, 93, 94, 95, 96, 97, 98, 99, 100, 101, 102, 103, 104, 105, 106, 107, 108, 109, 110, 111, 112, 113, 114, 115, 116, 117, 118, 119, 120, 121, 122],
      "LargestImagePixelValue": [1944, 2217, 2017, 1890, 1919, 1922, 1874, 2144, 1959, 1979, 2166, 1965, 1886, 1940, 1890, 2047, 1835, 1970, 1936, 1903, 2149, 1900, 1943, 2077, 2146, 1892, 1913, 1879, 1885, 1958, 2148, 2028, 1943, 1866, 1917, 1910, 1960, 1842, 1889, 1901, 1914, 2111, 1934, 1880, 1966, 1866, 1792, 1836, 1902, 1839, 1822, 1906, 1891, 1877, 1855, 1834, 2027, 1867, 1870, 1833, 1853, 1858, 1841, 1896, 1850, 1890, 1856, 1855, 1901, 1839, 1852, 1886, 1932, 1853, 1859, 1892, 1883, 1895, 1817, 1886, 1857, 1856, 1916, 1862, 1840, 1905, 1846, 1834, 1874, 1891, 1848, 1875, 1832, 1859, 1750, 1944, 1857, 1878, 1880, 1914, 1858, 1874, 1869, 1870, 1859, 1902, 1861, 1869, 1796, 1884, 1813, 1905, 1819, 1823, 1812, 1852, 1801, 1823, 1877, 1919, 1878, 1835],
      "WindowCenter": [684.0, 682.0, 680.0, 679.0, 679.0, 680.0, 679.0, 681.0, 680.0, 680.0, 682.0, 681.0, 679.0, 680.0, 681.0, 681.0, 678.0, 681.0, 681.0, 680.0, 680.0, 681.0, 681.0, 681.0, 681.0, 680.0, 679.0, 677.0, 679.0, 680.0, 680.0, 679.0, 679.0, 677.0, 679.0, 679.0, 680.0, 679.0, 681.0, 682.0, 681.0, 681.0, 679.0, 679.0, 679.0, 678.0, 677.0, 681.0, 681.0, 679.0, 679.0, 681.0, 681.0, 681.0, 679.0, 679.0, 678.0, 678.0, 679.0, 680.0, 680.0, 679.0, 678.0, 679.0, 681.0, 682.0, 681.0, 680.0, 680.0, 681.0, 680.0, 680.0, 680.0, 681.0, 681.0, 681.0, 682.0, 682.0, 680.0, 681.0, 682.0, 680.0, 680.0, 680.0, 680.0, 680.0, 679.0, 679.0, 680.0, 680.0, 679.0, 680.0, 680.0, 679.0, 682.0, 683.0, 680.0, 680.0, 679.0, 678.0, 678.0, 679.0, 679.0, 679.0, 678.0, 679.0, 678.0, 677.0, 678.0, 679.0, 681.0, 682.0, 679.0, 681.0, 683.0, 681.0, 678.0, 681.0, 682.0, 679.0, 679.0, 678.0],
      "WindowWidth": [1457.0, 1451.0, 1447.0, 1445.0, 1443.0, 1445.0, 1444.0, 1448.0, 1447.0, 1447.0, 1449.0, 1448.0, 1443.0, 1447.0, 1448.0, 1448.0, 1441.0, 1447.0, 1448.0, 1446.0, 1445.0, 1448.0, 1448.0, 1448.0, 1448.0, 1445.0, 1445.0, 1439.0, 1444.0, 1445.0, 1446.0, 1445.0, 1445.0, 1440.0, 1444.0, 1444.0, 1446.0, 1445.0, 1447.0, 1449.0, 1449.0, 1447.0, 1444.0, 1445.0, 1444.0, 1441.0, 1438.0, 1448.0, 1448.0, 1443.0, 1444.0, 1449.0, 1449.0, 1448.0, 1443.0, 1444.0, 1441.0, 1441.0, 1444.0, 1445.0, 1445.0, 1444.0, 1440.0, 1443.0, 1448.0, 1450.0, 1448.0, 1445.0, 1445.0, 1447.0, 1446.0, 1447.0, 1447.0, 1447.0, 1449.0, 1448.0, 1451.0, 1451.0, 1446.0, 1448.0, 1450.0, 1446.0, 1445.0, 1446.0, 1447.0, 1446.0, 1443.0, 1443.0, 1446.0, 1446.0, 1444.0, 1445.0, 1446.0, 1443.0, 1451.0, 1453.0, 1447.0, 1445.0, 1443.0, 1441.0, 1440.0, 1443.0, 1444.0, 1443.0, 1440.0, 1443.0, 1441.0, 1439.0, 1441.0, 1443.0, 1448.0, 1450.0, 1443.0, 1449.0, 1452.0, 1448.0, 1442.0, 1448.0, 1449.0, 1444.0, 1442.0, 1440.0]
    },
    "slices": {}
  }
}