{
  "AcquisitionMatrixPE": 72,
  "AcquisitionNumber": 1,
  "AcquisitionTime": "16:50:48.510000",
  "BandwidthPerPixelPhaseEncode": 24.366,
  "BaseResolution": 72,
  "BodyPartExamined": "BRAIN",
  "CoilCombinationMethod": "Sum of Squares",
  "ConsistencyInfo": "N4_VE11C_LATEST_20160120",
  "ConversionSoftware": "dcm2niix",
  "ConversionSoftwareVersion": "v1.0.20220720",
  "DerivedVendorReportedEchoSpacing": 0.000570011,
  "DeviceSerialNumber": "45219",
  "DwellTime": 3.5e-06,
  "EchoTime": 0.03,
  "EchoTrainLength": 72,
  "EffectiveEchoSpacing": 0.000570011,
  "FlipAngle": 80,
  "HeudiconvVersion": "1.1.6",
  "ImageOrientationPatientDICOM": [0.999194, -0.00314869, 0.0400081, -1.35243e-08, 0.996917, 0.0784591],
  "ImageOrientationText": "Tra>Cor(4.5)>Sag(2.3)",
  "ImageType": [
    "ORIGINAL",
    "PRIMARY",
    "M",
    "ND",
    "NORM",
    "MOSAIC"
],
  "ImagingFrequency": 123.182,
  "InPlanePhaseEncodingDirectionDICOM": "COL",
  "InstitutionAddress": "First Avenue 660,New York,NYC,US,10016",
  "InstitutionName": "NYU LANGONE CBI",
  "InstitutionalDepartmentName": "Department",
  "MRAcquisitionType": "2D",
  "MagneticFieldStrength": 3,
  "Manufacturer": "Siemens",
  "ManufacturersModelName": "Skyra",
  "MatrixCoilMode": "SENSE",
  "Modality": "MR",
  "NonlinearGradientCorrection": false,
  "PartialFourier": 1,
  "PatientPosition": "HFS",
  "PercentPhaseFOV": 100,
  "PercentSampling": 100,
  "PhaseEncodingDirection": "j-",
  "PhaseEncodingSteps": 72,
  "PhaseResolution": 1,
  "PixelBandwidth": 1985,
  "ProcedureStepDescription": "MRI BRAIN WITHOUT IV CONTRAST",
  "ProtocolName": "TASK_AB",
  "PulseSequenceDetails": "%SiemensSeq%\\ep2d_bold",
  "ReceiveCoilActiveElements": "HE1-4",
  "ReceiveCoilName": "HeadNeck_20",
  "ReconMatrixPE": 72,
  "RepetitionTime": 2.5,
  "SAR": 0.167848,
  "ScanOptions": "FS",
  "ScanningSequence": "EP",
  "SequenceName": "*epfid2d1_72",
  "SequenceVariant": "SK",
  "SeriesDescription": "TASK_AB",
  "SeriesNumber": 11,
  "ShimSetting": [-880, -7077, 5302, 479, -306, 1, -74, -96],
  "SliceThickness": 3,
  "SliceTiming": [1.24, 0, 1.305, 0.065, 1.3725, 0.1325, 1.4375, 0.1975, 1.5025, 0.2625, 1.5675, 0.3275, 1.6325, 0.3925, 1.6975, 0.4575, 1.7625, 0.5225, 1.8275, 0.5875, 1.8925, 0.6525, 1.9575, 0.72, 2.025, 0.785, 2.09, 0.85, 2.155, 0.915, 2.22, 0.98, 2.285, 1.045, 2.35, 1.11, 2.415, 1.175],
  "SoftwareVersions": "syngo MR E11",
  "SpacingBetweenSlices": 3,
  "StationName": "MRC45219",
  "TaskName": "ab",
  "TotalReadoutTime": 0.0404708,
  "TxRefAmp": 453.087,
  "dcmmeta_affine": [
    [-2.9975831508636475, -4.057285352132567e-08, 0.12039537727832794, 104.99795532226562],
    [0.009446071460843086, 2.9907519817352295, 0.23518766462802887, -113.50057983398438],
    [0.12002424150705338, -0.23537728190422058, 2.988342761993408, 14.953177452087402],
    [0.0, 0.0, 0.0, 1.0]
],
  "dcmmeta_reorient_transform": [
    [0.0, -1.0, 0.0, 71.0],
    [1.0, 0.0, 0.0, 0.0],
    [0.0, 0.0, 1.0, 0.0],
    [0.0, 0.0, 0.0, 1.0]
],
  "dcmmeta_shape": [72, 72, 38, 132],
  "dcmmeta_slice_dim": 2,
  "dcmmeta_version": 0.6,
  "global": {
    "const": {
      "AccessionNumber": "REMOVED",
      "AcquisitionMatrix": [72, 0, 0, 72],
      "AngioFlag": "N",
      "BitsAllocated": 16,
      "BitsStored": 12,
      "BodyPartExamined": "BRAIN",
      "Columns": 504,
      "CountryOfResidence": "REMOVED",
      "DeidentificationMethod": "anonymize.default",
      "DeidentificationMethodCodeSequence": [
        {
          "CodeMeaning": "Basic Anonymization",
          "CodeValue": "113199",
          "CodingSchemeDesignator": "2012CDX"
        }
],
      "EchoNumbers": 1,
      "EchoTime": 30.0,
      "EchoTrainLength": 72,
      "FlipAngle": 80.0,
      "HighBit": 11,
      "ImageOrientationPatient": [0.9991943951548, -0.0031486906023, 0.0400080796681, -1.3524284e-08, 0.99691733373157, 0.07845909574769],
      "ImagePositionPatient": [-752.47591416543, -742.80489563549, -78.525339811479],
      "ImageType": [
        "ORIGINAL",
        "PRIMARY",
        "M",
        "ND",
        "NORM",
        "MOSAIC"
],
      "ImagedNucleus": "1H",
      "ImagingFrequency": 123.181894,
      "InPlanePhaseEncodingDirection": "COL",
      "MRAcquisitionType": "2D",
      "MagneticFieldStrength": 3.0,
      "Manufacturer": "SIEMENS",
      "ManufacturerModelName": "Skyra",
      "Modality": "MR",
      "NumberOfAverages": 1.0,
      "NumberOfPhaseEncodingSteps": 72,
      "PercentPhaseFieldOfView": 100.0,
      "PercentSampling": 100.0,
      "PerformedProcedureStepStartTime": "162629.527000",
      "PhotometricInterpretation": "MONOCHROME2",
      "PixelBandwidth": 1985.0,
      "PixelRepresentation": 0,
      "PixelSpacing": [3.0, 3.0],
      "PregnancyStatus": 0,
      "ProcedureCodeSequence": [
        {
          "CodeMeaning": "MRI BRAIN WITHOUT IV CONTRAST",
          "CodeValue": "IMG269",
          "CodingSchemeDesignator": "L"
        }
],
      "ProtocolName": "TASK_AB",
      "RepetitionTime": 2500.0,
      "RequestAttributesSequence": [
        {
          "RequestedProcedureID": "365122554",
          "ScheduledProcedureStepDescription": "MRI BRAIN WITHOUT IV CONTRAST",
          "ScheduledProcedureStepID": "E10670491",
          "ScheduledProtocolCodeSequence": [
            {
              "CodeMeaning": "MRI BRAIN WITHOUT IV CONTRAST",
              "CodeValue": "651061",
              "CodingSchemeDesignator": "L"
            }
]
        }
],
      "RequestedProcedureCodeSequence": [
        {
          "CodeMeaning": "MRI BRAIN WITHOUT IV CONTRAST",
          "CodeValue": "IMG269",
          "CodingSchemeDesignator": "L"
        }
],
      "Rows": 504,
      "SAR": 0.16784764285784,
      "SamplesPerPixel": 1,
      "ScanOptions": "FS",
      "ScanningSequence": "EP",
      "SequenceName": "*epfid2d1_72",
      "SequenceVariant": "SK",
      "SeriesDescription": "TASK_AB",
      "SeriesNumber": 11,
      "SeriesTime": "165144.808000",
      "SliceLocation": 10.210849849532,
      "SliceThickness": 3.0,
      "SmallestImagePixelValue": 0,
      "SmokingStatus": "REMOVED",
      "SoftwareVersions": "syngo MR E11",
      "SpacingBetweenSlices": 3.0000000099979,
      "SpecificCharacterSet": "ISO_IR 100",
      "StudyID": "REMOVED",
      "StudyTime": "162629.373000",
      "TransmitCoilName": "Body",
      "VariableFlipAngleFlag": "N",
      "WindowCenterWidthExplanation": "Algo1",
      "dBdt": 0.0},
    "slices": {}
  },
  "time": {
    "samples": {
      "AcquisitionNumber": [1, 2, 3, 4, 5, 6, 7, 8, 9, 10, 11, 12, 13, 14, 15, 16, 17, 18, 19, 20, 21, 22, 23, 24, 25, 26, 27, 28, 29, 30, 31, 32, 33, 34, 35, 36, 37, 38, 39, 40, 41, 42, 43, 44, 45, 46, 47, 48, 49, 50, 51, 52, 53, 54, 55, 56, 57, 58, 59, 60, 61, 62, 63, 64, 65, 66, 67, 68, 69, 70, 71, 72, 73, 74, 75, 76, 77, 78, 79, 80, 81, 82, 83, 84, 85, 86, 87, 88, 89, 90, 91, 92, 93, 94, 95, 96, 97, 98, 99, 100, 101, 102, 103, 104, 105, 106, 107, 108, 109, 110, 111, 112, 113, 114, 115, 116, 117, 118, 119, 120, 121, 122, 123, 124, 125, 126, 127, 128, 129, 130, 131, 132],
      "AcquisitionTime": ["165048.510000", "165051.010000", "165053.510000", "165056.010000", "165058.510000", "165101.010000", "165103.510000", "165106.010000", "165108.510000", "165111.010000", "165113.510000", "165116.010000", "165118.510000", "165121.010000", "165123.510000", "165126.010000", "165128.510000", "165131.010000", "165133.510000", "165136.010000", "165138.510000", "165141.010000", "165143.510000", "165146.010000", "165148.510000", "165151.010000", "165153.510000", "165156.010000", "165158.510000", "165201.010000", "165203.510000", "165206.010000", "165208.510000", "165211.010000", "165213.510000", "165216.010000", "165218.510000", "165221.010000", "165223.510000", "165226.010000", "165228.510000", "165231.010000", "165233.510000", "165236.010000", "165238.510000", "165241.010000", "165243.510000", "165246.010000", "165248.510000", "165251.010000", "165253.510000", "165256.010000", "165258.510000", "165301.010000", "165303.510000", "165306.010000", "165308.510000", "165311.010000", "165313.510000", "165316.010000", "165318.510000", "165321.010000", "165323.510000", "165326.010000", "165328.510000", "165331.010000", "165333.510000", "165336.010000", "165338.510000", "165341.010000", "165343.510000", "165346.010000", "165348.510000", "165351.010000", "165353.510000", "165356.010000", "165358.510000", "165401.010000", "165403.510000", "165406.010000", "165408.510000", "165411.010000", "165413.510000", "165416.010000", "165418.510000", "165421.010000", "165423.510000", "165426.010000", "165428.510000", "165431.010000", "165433.510000", "165436.010000", "165438.510000", "165441.010000", "165443.510000", "165446.010000", "165448.510000", "165451.010000", "165453.510000", "165456.010000", "165458.510000", "165501.010000", "165503.510000", "165506.010000", "165508.510000", "165511.010000", "165513.510000", "165516.010000", "165518.510000", "165521.010000", "165523.510000", "165526.010000", "165528.510000", "165531.010000", "165533.510000", "165536.010000", "165538.510000", "165541.010000", "165543.510000", "165546.010000", "165548.510000", "165551.010000", "165553.510000", "165556.010000", "165558.510000", "165601.010000", "165603.510000", "165606.010000", "165608.510000", "165611.010000", "165613.510000", "165616.010000"],
      "ContentTime": ["165144.812000", "165144.816000", "165144.818000", "165144.821000", "165144.824000", "165144.827000", "165144.829000", "165144.832000", "165144.835000", "165144.838000", "165144.840000", "165144.843000", "165144.846000", "165144.848000", "165144.851000", "165144.854000", "165144.857000", "165144.859000", "165144.862000", "165144.865000", "165144.868000", "165144.870000", "165244.807000", "165244.814000", "165244.816000", "165244.819000", "165244.822000", "165244.825000", "165244.827000", "165244.830000", "165244.833000", "165244.835000", "165244.838000", "165244.841000", "165244.843000", "165244.846000", "165244.849000", "165244.852000", "165244.854000", "165244.857000", "165244.860000", "165244.863000", "165244.865000", "165244.868000", "165244.871000", "165244.873000", "165324.806000", "165324.815000", "165324.818000", "165324.821000", "165324.823000", "165324.826000", "165324.829000", "165324.831000", "165324.834000", "165324.837000", "165324.839000", "165324.842000", "165324.845000", "165324.847000", "165324.850000", "165324.853000", "165424.807000", "165424.810000", "165424.812000", "165424.815000", "165424.818000", "165424.821000", "165424.823000", "165424.826000", "165424.829000", "165424.832000", "165424.834000", "165424.837000", "165424.840000", "165424.842000", "165424.845000", "165424.848000", "165424.850000", "165424.853000", "165424.856000", "165424.859000", "165424.861000", "165424.872000", "165424.874000", "165424.877000", "165524.806000", "165524.809000", "165524.812000", "165524.814000", "165524.817000", "165524.820000", "165524.822000", "165524.825000", "165524.828000", "165524.831000", "165524.833000", "165524.836000", "165524.839000", "165524.842000", "165524.844000", "165524.847000", "165524.849000", "165524.852000", "165524.855000", "165524.858000", "165524.860000", "165524.871000", "165524.873000", "165524.876000", "165617.673000", "165617.682000", "165617.685000", "165617.687000", "165617.690000", "165617.693000", "165617.696000", "165617.698000", "165617.701000", "165617.705000", "165617.709000", "165617.718000", "165617.722000", "165617.725000", "165617.728000", "165617.731000", "165617.737000", "165617.740000", "165617.743000", "165617.746000", "165617.749000", "165617.752000"],
      "InstanceCreationTime": ["165144.812000", "165144.816000", "165144.818000", "165144.821000", "165144.824000", "165144.827000", "165144.829000", "165144.832000", "165144.835000", "165144.838000", "165144.840000", "165144.843000", "165144.846000", "165144.848000", "165144.851000", "165144.854000", "165144.857000", "165144.859000", "165144.862000", "165144.865000", "165144.868000", "165144.870000", "165244.807000", "165244.814000", "165244.816000", "165244.819000", "165244.822000", "165244.825000", "165244.827000", "165244.830000", "165244.833000", "165244.835000", "165244.838000", "165244.841000", "165244.843000", "165244.846000", "165244.849000", "165244.852000", "165244.854000", "165244.857000", "165244.860000", "165244.863000", "165244.865000", "165244.868000", "165244.871000", "165244.873000", "165324.806000", "165324.815000", "165324.818000", "165324.821000", "165324.823000", "165324.826000", "165324.829000", "165324.831000", "165324.834000", "165324.837000", "165324.839000", "165324.842000", "165324.845000", "165324.847000", "165324.850000", "165324.853000", "165424.807000", "165424.810000", "165424.812000", "165424.815000", "165424.818000", "165424.821000", "165424.823000", "165424.826000", "165424.829000", "165424.832000", "165424.834000", "165424.837000", "165424.840000", "165424.842000", "165424.845000", "165424.848000", "165424.850000", "165424.853000", "165424.856000", "165424.859000", "165424.861000", "165424.872000", "165424.874000", "165424.877000", "165524.806000", "165524.809000", "165524.812000", "165524.814000", "165524.817000", "165524.820000", "165524.822000", "165524.825000", "165524.828000", "165524.831000", "165524.833000", "165524.836000", "165524.839000", "165524.842000", "165524.844000", "165524.847000", "165524.849000", "165524.852000", "165524.855000", "165524.858000", "165524.860000", "165524.871000", "165524.873000", "165524.876000", "165617.673000", "165617.682000", "165617.685000", "165617.687000", "165617.690000", "165617.693000", "165617.696000", "165617.698000", "165617.701000", "165617.705000", "165617.709000", "165617.718000", "165617.722000", "165617.725000", "165617.728000", "165617.731000", "165617.737000", "165617.740000", "165617.743000", "165617.746000", "165617.749000", "165617.752000"],
      "InstanceNumber": [1, 2, 3, 4, 5, 6, 7, 8, 9, 10, 11, 12, 13, 14, 15, 16, 17, 18, 19, 20, 21, 22, 23, 24, 25, 26, 27, 28, 29, 30, 31, 32, 33, 34, 35, 36, 37, 38, 39, 40, 41, 42, 43, 44, 45, 46, 47, 48, 49, 50, 51, 52, 53, 54, 55, 56, 57, 58, 59, 60, 61, 62, 63, 64, 65, 66, 67, 68, 69, 70, 71, 72, 73, 74, 75, 76, 77, 78, 79, 80, 81, 82, 83, 84, 85, 86, 87, 88, 89, 90, 91, 92, 93, 94, 95, 96, 97, 98, 99, 100, 101, 102, 103, 104, 105, 106, 107, 108, 109, 110, 111, 112, 113, 114, 115, 116, 117, 118, 119, 120, 121, 122, 123, 124, 125, 126, 127, 128, 129, 130, 131, 132],
      "LargestImagePixelValue": [1434, 1385, 1365, 1384, 1417, 1347, 1351, 1402, 1444, 1373, 1354, 1359, 1404, 1344, 1488, 1358, 1344, 1380, 1411, 1353, 1353, 1343, 1342, 1345, 1425, 1368, 1404, 1416, 1372, 1365, 1387, 1396, 1430, 1500, 1395, 1373, 1412, 1451, 1439, 1432, 1457, 1486, 1493, 1375, 1464, 1354, 1368, 1409, 1346, 1363, 1352, 1366, 1347, 1357, 1357, 1359, 1350, 1367, 1351, 1371, 1401, 1430, 1382, 1422, 1385, 1417, 1387, 1391, 1378, 1358, 1419, 1475, 1439, 1383, 1440, 1436, 1431, 1399, 1407, 1408, 1344, 1338, 1356, 1356, 1418, 1357, 1365, 1354, 1361, 1440, 1429, 1406, 1454, 1332, 1556, 1501, 1436, 1362, 1329, 1331, 1381, 1357, 1325, 1344, 1354, 1370, 1346, 1375, 1368, 1362, 1328, 1375, 1347, 1372, 1371, 1357, 1356, 1356, 1372, 1464, 1378, 1554, 1365, 1385, 1324, 1318, 1410, 1376, 1337, 1350, 1440, 1352],
      "WindowCenter": [561.0, 559.0, 558.0, 558.0, 559.0, 558.0, 558.0, 557.0, 557.0, 556.0, 556.0, 557.0, 558.0, 558.0, 559.0, 558.0, 558.0, 558.0, 559.0, 558.0, 557.0, 557.0, 558.0, 557.0, 557.0, 556.0, 557.0, 556.0, 556.0, 556.0, 556.0, 556.0, 557.0, 558.0, 557.0, 558.0, 558.0, 558.0, 558.0, 558.0, 558.0, 558.0, 558.0, 556.0, 558.0, 558.0, 558.0, 558.0, 556.0, 555.0, 555.0, 555.0, 556.0, 557.0, 558.0, 559.0, 559.0, 558.0, 558.0, 557.0, 558.0, 558.0, 558.0, 559.0, 558.0, 558.0, 557.0, 557.0, 557.0, 555.0, 557.0, 557.0, 557.0, 556.0, 557.0, 557.0, 557.0, 556.0, 559.0, 557.0, 555.0, 553.0, 553.0, 555.0, 557.0, 558.0, 559.0, 559.0, 559.0, 560.0, 559.0, 552.0, 558.0, 555.0, 531.0, 555.0, 556.0, 556.0, 556.0, 556.0, 556.0, 556.0, 556.0, 557.0, 557.0, 557.0, 557.0, 557.0, 557.0, 557.0, 556.0, 557.0, 556.0, 556.0, 556.0, 556.0, 556.0, 556.0, 556.0, 557.0, 547.0, 553.0, 557.0, 557.0, 555.0, 556.0, 557.0, 557.0, 556.0, 556.0, 557.0, 557.0],
      "WindowWidth": [1183.0, 1177.0, 1175.0, 1174.0, 1176.0, 1174.0, 1174.0, 1174.0, 1173.0, 1171.0, 1171.0, 1172.0, 1174.0, 1175.0, 1177.0, 1175.0, 1174.0, 1175.0, 1176.0, 1175.0, 1174.0, 1173.0, 1174.0, 1173.0, 1173.0, 1170.0, 1173.0, 1171.0, 1170.0, 1171.0, 1171.0, 1171.0, 1172.0, 1174.0, 1173.0, 1174.0, 1174.0, 1175.0, 1175.0, 1174.0, 1174.0, 1174.0, 1173.0, 1171.0, 1175.0, 1175.0, 1174.0, 1174.0, 1170.0, 1168.0, 1168.0, 1169.0, 1170.0, 1173.0, 1175.0, 1176.0, 1176.0, 1175.0, 1174.0, 1173.0, 1174.0, 1175.0, 1176.0, 1176.0, 1175.0, 1174.0, 1173.0, 1172.0, 1172.0, 1168.0, 1173.0, 1172.0, 1172.0, 1171.0, 1172.0, 1172.0, 1173.0, 1169.0, 1177.0, 1172.0, 1168.0, 1165.0, 1165.0, 1168.0, 1172.0, 1174.0, 1176.0, 1177.0, 1176.0, 1179.0, 1177.0, 1162.0, 1175.0, 1167.0, 1116.0, 1172.0, 1172.0, 1171.0, 1170.0, 1170.0, 1171.0, 1171.0, 1170.0, 1172.0, 1172.0, 1172.0, 1173.0, 1174.0, 1174.0, 1173.0, 1171.0, 1172.0, 1171.0, 1171.0, 1171.0, 1171.0, 1170.0, 1171.0, 1171.0, 1173.0, 1151.0, 1164.0, 1171.0, 1172.0, 1169.0, 1170.0, 1172.0, 1173.0, 1171.0, 1172.0, 1172.0, 1172.0]
    },
    "slices": {}
  }
}