{
  "AcquisitionMatrixPE": 72,
  "AcquisitionNumber": 1,
  "AcquisitionTime": "16:50:48.510000",
  "BandwidthPerPixelPhaseEncode": 24.366,
  "BaseResolution": 72,
  "BodyPartExamined": "BRAIN",
  "CoilCombinationMethod": "Sum of Squares",
  "ConsistencyInfo": "N4_VE11C_LATEST_20160120",
  "ConversionSoftware": "dcm2niix",
  "ConversionSoftwareVersion": "v1.0.20220720",
  "DerivedVendorReportedEchoSpacing": 0.000570011,
  "DeviceSerialNumber": "45219",
  "DwellTime": 3.5e-06,
  "EchoTime": 0.03,
  "EchoTrainLength": 72,
  "EffectiveEchoSpacing": 0.000570011,
  "FlipAngle": 80,
  "HeudiconvVersion": "1.1.6",
  "ImageComments": "Reference volume for motion correction.",
  "ImageOrientationPatientDICOM": [0.999194, -0.00314869, 0.0400081, -1.35243e-08, 0.996917, 0.0784591],
  "ImageOrientationText": "Tra>Cor(4.5)>Sag(2.3)",
  "ImageType": [
    "ORIGINAL",
    "PRIMARY",
    "M",
    "ND",
    "NORM",
    "MOCO",
    "MOSAIC"
],
  "ImagingFrequency": 123.182,
  "InPlanePhaseEncodingDirectionDICOM": "COL",
  "InstitutionAddress": "First Avenue 660,New York,NYC,US,10016",
  "InstitutionName": "NYU LANGONE CBI",
  "InstitutionalDepartmentName": "Department",
  "MRAcquisitionType": "2D",
  "MagneticFieldStrength": 3,
  "Manufacturer": "Siemens",
  "ManufacturersModelName": "Skyra",
  "MatrixCoilMode": "SENSE",
  "Modality": "MR",
  "NonlinearGradientCorrection": false,
  "PartialFourier": 1,
  "PatientPosition": "HFS",
  "PercentPhaseFOV": 100,
  "PercentSampling": 100,
  "PhaseEncodingDirection": "j-",
  "PhaseEncodingSteps": 72,
  "PhaseResolution": 1,
  "PixelBandwidth": 1985,
  "ProcedureStepDescription": "MRI BRAIN WITHOUT IV CONTRAST",
  "ProtocolName": "TASK_AB_MoCo",
  "PulseSequenceDetails": "%SiemensSeq%\\ep2d_bold",
  "ReceiveCoilActiveElements": "HE1-4",
  "ReceiveCoilName": "HeadNeck_20",
  "ReconMatrixPE": 72,
  "RepetitionTime": 2.5,
  "SAR": 0.167848,
  "ScanOptions": "FS",
  "ScanningSequence": "EP",
  "SequenceName": "*epfid2d1_72",
  "SequenceVariant": "SK",
  "SeriesDescription": "MoCoSeries",
  "SeriesNumber": 12,
  "ShimSetting": [-880, -7077, 5302, 479, -306, 1, -74, -96],
  "SliceThickness": 3,
  "SliceTiming": [1.24, 0, 1.305, 0.065, 1.3725, 0.1325, 1.4375, 0.1975, 1.5025, 0.2625, 1.5675, 0.3275, 1.6325, 0.3925, 1.6975, 0.4575, 1.7625, 0.5225, 1.8275, 0.5875, 1.8925, 0.6525, 1.9575, 0.72, 2.025, 0.785, 2.09, 0.85, 2.155, 0.915, 2.22, 0.98, 2.285, 1.045, 2.35, 1.11, 2.415, 1.175],
  "SoftwareVersions": "syngo MR E11",
  "SpacingBetweenSlices": 3,
  "StationName": "MRC45219",
  "TaskName": "ab",
  "TotalReadoutTime": 0.0404708,
  "TxRefAmp": 453.087,
  "dcmmeta_affine": [
    [-2.9975831508636475, -4.057285352132567e-08, 0.12039537727832794, 104.99795532226562],
    [0.009446071460843086, 2.9907519817352295, 0.23518766462802887, -113.50057983398438],
    [0.12002424150705338, -0.23537728190422058, 2.988342761993408, 14.953177452087402],
    [0.0, 0.0, 0.0, 1.0]
],
  "dcmmeta_reorient_transform": [
    [0.0, -1.0, 0.0, 71.0],
    [1.0, 0.0, 0.0, 0.0],
    [0.0, 0.0, 1.0, 0.0],
    [0.0, 0.0, 0.0, 1.0]
],
  "dcmmeta_shape": [72, 72, 38, 132],
  "dcmmeta_slice_dim": 2,
  "dcmmeta_version": 0.6,
  "global": {
    "const": {
      "AccessionNumber": "REMOVED",
      "AcquisitionMatrix": [72, 0, 0, 72],
      "AngioFlag": "N",
      "BitsAllocated": 16,
      "BitsStored": 12,
      "BodyPartExamined": "BRAIN",
      "Columns": 504,
      "CountryOfResidence": "REMOVED",
      "DeidentificationMethod": "anonymize.default",
      "DeidentificationMethodCodeSequence": [
        {
          "CodeMeaning": "Basic Anonymization",
          "CodeValue": "113199",
          "CodingSchemeDesignator": "2012CDX"
        }
],
      "EchoNumbers": 1,
      "EchoTime": 30.0,
      "EchoTrainLength": 72,
      "FlipAngle": 80.0,
      "HighBit": 11,
      "ImageOrientationPatient": [0.9991943951548, -0.0031486906023, 0.0400080796681, -1.3524284e-08, 0.99691733373157, 0.07845909574769],
      "ImagePositionPatient": [-752.47591416543, -742.80489563549, -78.525339811479],
      "ImageType": [
        "ORIGINAL",
        "PRIMARY",
        "M",
        "ND",
        "NORM",
        "MOCO",
        "MOSAIC"
],
      "ImagedNucleus": "1H",
      "ImagingFrequency": 123.181894,
      "InPlanePhaseEncodingDirection": "COL",
      "MRAcquisitionType": "2D",
      "MagneticFieldStrength": 3.0,
      "Manufacturer": "SIEMENS",
      "ManufacturerModelName": "Skyra",
      "Modality": "MR",
      "NumberOfAverages": 1.0,
      "NumberOfPhaseEncodingSteps": 72,
      "PercentPhaseFieldOfView": 100.0,
      "PercentSampling": 100.0,
      "PerformedProcedureStepStartTime": "162629.527000",
      "PhotometricInterpretation": "MONOCHROME2",
      "PixelBandwidth": 1985.0,
      "PixelRepresentation": 0,
      "PixelSpacing": [3.0, 3.0],
      "PregnancyStatus": 0,
      "ProcedureCodeSequence": [
        {
          "CodeMeaning": "MRI BRAIN WITHOUT IV CONTRAST",
          "CodeValue": "IMG269",
          "CodingSchemeDesignator": "L"
        }
],
      "ProtocolName": "TASK_AB",
      "RepetitionTime": 2500.0,
      "RequestAttributesSequence": [
        {
          "RequestedProcedureID": "365122554",
          "ScheduledProcedureStepDescription": "MRI BRAIN WITHOUT IV CONTRAST",
          "ScheduledProcedureStepID": "E10670491",
          "ScheduledProtocolCodeSequence": [
            {
              "CodeMeaning": "MRI BRAIN WITHOUT IV CONTRAST",
              "CodeValue": "651061",
              "CodingSchemeDesignator": "L"
            }
]
        }
],
      "RequestedProcedureCodeSequence": [
        {
          "CodeMeaning": "MRI BRAIN WITHOUT IV CONTRAST",
          "CodeValue": "IMG269",
          "CodingSchemeDesignator": "L"
        }
],
      "Rows": 504,
      "SAR": 0.16784764285784,
      "SamplesPerPixel": 1,
      "ScanOptions": "FS",
      "ScanningSequence": "EP",
      "SequenceName": "*epfid2d1_72",
      "SequenceVariant": "SK",
      "SeriesDescription": "MoCoSeries",
      "SeriesNumber": 12,
      "SeriesTime": "165144.915000",
      "SliceLocation": 10.210849849532,
      "SliceThickness": 3.0,
      "SmallestImagePixelValue": 0,
      "SmokingStatus": "REMOVED",
      "SoftwareVersions": "syngo MR E11",
      "SpacingBetweenSlices": 3.0000000099979,
      "SpecificCharacterSet": "ISO_IR 100",
      "StudyID": "REMOVED",
      "StudyTime": "162629.373000",
      "TransmitCoilName": "Body",
      "VariableFlipAngleFlag": "N",
      "WindowCenterWidthExplanation": "Algo1",
      "dBdt": 0.0},
    "slices": {}
  },
  "time": {
    "samples": {
      "AcquisitionNumber": [1, 2, 3, 4, 5, 6, 7, 8, 9, 10, 11, 12, 13, 14, 15, 16, 17, 18, 19, 20, 21, 22, 23, 24, 25, 26, 27, 28, 29, 30, 31, 32, 33, 34, 35, 36, 37, 38, 39, 40, 41, 42, 43, 44, 45, 46, 47, 48, 49, 50, 51, 52, 53, 54, 55, 56, 57, 58, 59, 60, 61, 62, 63, 64, 65, 66, 67, 68, 69, 70, 71, 72, 73, 74, 75, 76, 77, 78, 79, 80, 81, 82, 83, 84, 85, 86, 87, 88, 89, 90, 91, 92, 93, 94, 95, 96, 97, 98, 99, 100, 101, 102, 103, 104, 105, 106, 107, 108, 109, 110, 111, 112, 113, 114, 115, 116, 117, 118, 119, 120, 121, 122, 123, 124, 125, 126, 127, 128, 129, 130, 131, 132],
      "AcquisitionTime": ["165048.510000", "165051.010000", "165053.510000", "165056.010000", "165058.510000", "165101.010000", "165103.510000", "165106.010000", "165108.510000", "165111.010000", "165113.510000", "165116.010000", "165118.510000", "165121.010000", "165123.510000", "165126.010000", "165128.510000", "165131.010000", "165133.510000", "165136.010000", "165138.510000", "165141.010000", "165143.510000", "165146.010000", "165148.510000", "165151.010000", "165153.510000", "165156.010000", "165158.510000", "165201.010000", "165203.510000", "165206.010000", "165208.510000", "165211.010000", "165213.510000", "165216.010000", "165218.510000", "165221.010000", "165223.510000", "165226.010000", "165228.510000", "165231.010000", "165233.510000", "165236.010000", "165238.510000", "165241.010000", "165243.510000", "165246.010000", "165248.510000", "165251.010000", "165253.510000", "165256.010000", "165258.510000", "165301.010000", "165303.510000", "165306.010000", "165308.510000", "165311.010000", "165313.510000", "165316.010000", "165318.510000", "165321.010000", "165323.510000", "165326.010000", "165328.510000", "165331.010000", "165333.510000", "165336.010000", "165338.510000", "165341.010000", "165343.510000", "165346.010000", "165348.510000", "165351.010000", "165353.510000", "165356.010000", "165358.510000", "165401.010000", "165403.510000", "165406.010000", "165408.510000", "165411.010000", "165413.510000", "165416.010000", "165418.510000", "165421.010000", "165423.510000", "165426.010000", "165428.510000", "165431.010000", "165433.510000", "165436.010000", "165438.510000", "165441.010000", "165443.510000", "165446.010000", "165448.510000", "165451.010000", "165453.510000", "165456.010000", "165458.510000", "165501.010000", "165503.510000", "165506.010000", "165508.510000", "165511.010000", "165513.510000", "165516.010000", "165518.510000", "165521.010000", "165523.510000", "165526.010000", "165528.510000", "165531.010000", "165533.510000", "165536.010000", "165538.510000", "165541.010000", "165543.510000", "165546.010000", "165548.510000", "165551.010000", "165553.510000", "165556.010000", "165558.510000", "165601.010000", "165603.510000", "165606.010000", "165608.510000", "165611.010000", "165613.510000", "165616.010000"],
      "ContentTime": ["165144.917000", "165144.920000", "165144.923000", "165144.926000", "165144.929000", "165144.932000", "165144.934000", "165144.937000", "165144.940000", "165144.943000", "165144.945000", "165144.948000", "165144.951000", "165144.954000", "165144.957000", "165144.959000", "165144.962000", "165144.965000", "165144.968000", "165144.970000", "165144.973000", "165144.976000", "165244.911000", "165244.914000", "165244.917000", "165244.920000", "165244.930000", "165244.933000", "165244.936000", "165244.939000", "165244.941000", "165244.944000", "165244.947000", "165244.950000", "165244.953000", "165244.955000", "165244.958000", "165244.961000", "165244.964000", "165244.967000", "165244.969000", "165244.972000", "165244.975000", "165244.978000", "165244.989000", "165244.992000", "165324.888000", "165324.891000", "165324.893000", "165324.896000", "165324.899000", "165324.902000", "165324.905000", "165324.907000", "165324.910000", "165324.913000", "165324.916000", "165324.919000", "165324.921000", "165324.925000", "165324.927000", "165324.930000", "165424.922000", "165424.924000", "165424.927000", "165424.930000", "165424.933000", "165424.936000", "165424.938000", "165424.941000", "165424.944000", "165424.947000", "165424.950000", "165424.952000", "165424.955000", "165424.958000", "165424.961000", "165424.964000", "165424.966000", "165424.969000", "165424.972000", "165424.975000", "165424.978000", "165424.980000", "165424.983000", "165424.986000", "165524.915000", "165524.918000", "165524.920000", "165524.923000", "165524.926000", "165524.929000", "165524.932000", "165524.934000", "165524.937000", "165524.940000", "165524.943000", "165524.945000", "165524.948000", "165524.951000", "165524.954000", "165524.957000", "165524.959000", "165524.962000", "165524.965000", "165524.968000", "165524.971000", "165524.974000", "165524.976000", "165524.979000", "165617.794000", "165617.797000", "165617.800000", "165617.807000", "165617.810000", "165617.813000", "165617.816000", "165617.819000", "165617.822000", "165617.825000", "165617.827000", "165617.830000", "165617.833000", "165617.837000", "165617.840000", "165617.843000", "165617.846000", "165617.848000", "165617.851000", "165617.855000", "165617.858000", "165617.861000"],
      "InstanceCreationTime": ["165144.917000", "165144.920000", "165144.923000", "165144.926000", "165144.929000", "165144.932000", "165144.934000", "165144.937000", "165144.940000", "165144.943000", "165144.945000", "165144.948000", "165144.951000", "165144.954000", "165144.957000", "165144.959000", "165144.962000", "165144.965000", "165144.968000", "165144.970000", "165144.973000", "165144.976000", "165244.911000", "165244.914000", "165244.917000", "165244.920000", "165244.930000", "165244.933000", "165244.936000", "165244.939000", "165244.941000", "165244.944000", "165244.947000", "165244.950000", "165244.953000", "165244.955000", "165244.958000", "165244.961000", "165244.964000", "165244.967000", "165244.969000", "165244.972000", "165244.975000", "165244.978000", "165244.989000", "165244.992000", "165324.888000", "165324.891000", "165324.893000", "165324.896000", "165324.899000", "165324.902000", "165324.905000", "165324.907000", "165324.910000", "165324.913000", "165324.916000", "165324.919000", "165324.921000", "165324.925000", "165324.927000", "165324.930000", "165424.922000", "165424.924000", "165424.927000", "165424.930000", "165424.933000", "165424.936000", "165424.938000", "165424.941000", "165424.944000", "165424.947000", "165424.950000", "165424.952000", "165424.955000", "165424.958000", "165424.961000", "165424.964000", "165424.966000", "165424.969000", "165424.972000", "165424.975000", "165424.978000", "165424.980000", "165424.983000", "165424.986000", "165524.915000", "165524.918000", "165524.920000", "165524.923000", "165524.926000", "165524.929000", "165524.932000", "165524.934000", "165524.937000", "165524.940000", "165524.943000", "165524.945000", "165524.948000", "165524.951000", "165524.954000", "165524.957000", "165524.959000", "165524.962000", "165524.965000", "165524.968000", "165524.971000", "165524.974000", "165524.976000", "165524.979000", "165617.794000", "165617.797000", "165617.800000", "165617.807000", "165617.810000", "165617.813000", "165617.816000", "165617.819000", "165617.822000", "165617.825000", "165617.827000", "165617.830000", "165617.833000", "165617.837000", "165617.840000", "165617.843000", "165617.846000", "165617.848000", "165617.851000", "165617.855000", "165617.858000", "165617.861000"],
      "InstanceNumber": [1, 2, 3, 4, 5, 6, 7, 8, 9, 10, 11, 12, 13, 14, 15, 16, 17, 18, 19, 20, 21, 22, 23, 24, 25, 26, 27, 28, 29, 30, 31, 32, 33, 34, 35, 36, 37, 38, 39, 40, 41, 42, 43, 44, 45, 46, 47, 48, 49, 50, 51, 52, 53, 54, 55, 56, 57, 58, 59, 60, 61, 62, 63, 64, 65, 66, 67, 68, 69, 70, 71, 72, 73, 74, 75, 76, 77, 78, 79, 80, 81, 82, 83, 84, 85, 86, 87, 88, 89, 90, 91, 92, 93, 94, 95, 96, 97, 98, 99, 100, 101, 102, 103, 104, 105, 106, 107, 108, 109, 110, 111, 112, 113, 114, 115, 116, 117, 118, 119, 120, 121, 122, 123, 124, 125, 126, 127, 128, 129, 130, 131, 132],
      "LargestImagePixelValue": [1434, 1381, 1362, 1374, 1419, 1365, 1355, 1413, 1442, 1378, 1344, 1373, 1421, 1373, 1524, 1387, 1357, 1358, 1427, 1358, 1371, 1345, 1339, 1361, 1432, 1368, 1421, 1403, 1371, 1370, 1378, 1384, 1423, 1494, 1386, 1369, 1404, 1434, 1421, 1426, 1453, 1476, 1490, 1382, 1480, 1351, 1406, 1407, 1374, 1350, 1362, 1375, 1334, 1335, 1352, 1362, 1354, 1353, 1371, 1380, 1408, 1406, 1346, 1381, 1391, 1419, 1389, 1400, 1388, 1347, 1402, 1463, 1422, 1367, 1435, 1440, 1461, 1401, 1413, 1412, 1355, 1350, 1362, 1351, 1398, 1358, 1381, 1388, 1367, 1404, 1446, 1403, 1462, 1351, 1403, 1500, 1503, 1383, 1312, 1377, 1403, 1394, 1365, 1345, 1394, 1415, 1410, 1405, 1402, 1421, 1389, 1422, 1391, 1427, 1421, 1376, 1393, 1425, 1423, 1492, 1353, 1471, 1364, 1425, 1370, 1353, 1452, 1430, 1381, 1391, 1487, 1424],
      "WindowCenter": [561.0, 559.0, 558.0, 558.0, 558.0, 558.0, 558.0, 558.0, 557.0, 556.0, 556.0, 557.0, 558.0, 558.0, 559.0, 558.0, 558.0, 558.0, 559.0, 558.0, 558.0, 557.0, 557.0, 557.0, 557.0, 555.0, 557.0, 556.0, 556.0, 556.0, 556.0, 556.0, 557.0, 558.0, 557.0, 557.0, 558.0, 558.0, 558.0, 558.0, 558.0, 558.0, 558.0, 556.0, 558.0, 558.0, 558.0, 558.0, 556.0, 555.0, 555.0, 555.0, 555.0, 557.0, 558.0, 559.0, 559.0, 558.0, 558.0, 557.0, 557.0, 558.0, 558.0, 558.0, 558.0, 558.0, 557.0, 557.0, 556.0, 554.0, 557.0, 557.0, 557.0, 556.0, 557.0, 557.0, 557.0, 555.0, 559.0, 557.0, 555.0, 553.0, 553.0, 555.0, 556.0, 557.0, 559.0, 559.0, 559.0, 560.0, 559.0, 552.0, 558.0, 555.0, 532.0, 555.0, 557.0, 557.0, 556.0, 556.0, 556.0, 557.0, 556.0, 557.0, 558.0, 558.0, 558.0, 558.0, 558.0, 558.0, 557.0, 557.0, 557.0, 557.0, 557.0, 556.0, 557.0, 557.0, 557.0, 558.0, 546.0, 552.0, 557.0, 557.0, 556.0, 556.0, 557.0, 557.0, 557.0, 557.0, 557.0, 558.0],
      "WindowWidth": [1183.0, 1177.0, 1175.0, 1174.0, 1176.0, 1175.0, 1174.0, 1174.0, 1173.0, 1171.0, 1171.0, 1172.0, 1174.0, 1175.0, 1177.0, 1175.0, 1174.0, 1174.0, 1176.0, 1175.0, 1174.0, 1173.0, 1173.0, 1173.0, 1173.0, 1169.0, 1173.0, 1171.0, 1170.0, 1171.0, 1171.0, 1170.0, 1172.0, 1174.0, 1173.0, 1173.0, 1174.0, 1175.0, 1174.0, 1174.0, 1174.0, 1174.0, 1173.0, 1171.0, 1174.0, 1175.0, 1175.0, 1175.0, 1171.0, 1168.0, 1168.0, 1169.0, 1170.0, 1172.0, 1175.0, 1176.0, 1176.0, 1175.0, 1175.0, 1173.0, 1173.0, 1174.0, 1174.0, 1175.0, 1175.0, 1174.0, 1173.0, 1172.0, 1172.0, 1167.0, 1172.0, 1172.0, 1172.0, 1170.0, 1172.0, 1172.0, 1173.0, 1169.0, 1177.0, 1173.0, 1168.0, 1165.0, 1165.0, 1168.0, 1171.0, 1173.0, 1176.0, 1177.0, 1176.0, 1178.0, 1177.0, 1161.0, 1175.0, 1168.0, 1117.0, 1172.0, 1172.0, 1172.0, 1170.0, 1170.0, 1171.0, 1172.0, 1171.0, 1172.0, 1174.0, 1174.0, 1174.0, 1175.0, 1174.0, 1175.0, 1172.0, 1172.0, 1172.0, 1172.0, 1172.0, 1171.0, 1172.0, 1172.0, 1173.0, 1174.0, 1149.0, 1163.0, 1172.0, 1172.0, 1171.0, 1171.0, 1172.0, 1173.0, 1172.0, 1173.0, 1173.0, 1174.0]
    },
    "slices": {}
  }
}