{
  "AcquisitionMatrixPE": 72,
  "AcquisitionNumber": 1,
  "AcquisitionTime": "16:17:15.302500",
  "BaseResolution": 72,
  "BodyPartExamined": "BRAIN",
  "CoilCombinationMethod": "Sum of Squares",
  "ConsistencyInfo": "N4_VE11C_LATEST_20160120",
  "ConversionSoftware": "dcm2niix",
  "ConversionSoftwareVersion": "v1.0.20220720",
  "DeviceSerialNumber": "45219",
  "DwellTime": 2.39e-05,
  "EchoNumber": 2,
  "EchoTime": 0.00738,
  "EchoTime1": 0.00492,
  "EchoTime2": 0.00738,
  "FlipAngle": 60,
  "HeudiconvVersion": "1.1.6",
  "ImageOrientationPatientDICOM": [0.998971, -0.00873348, 0.0445132, 4.33952e-10, 0.981291, 0.192529],
  "ImageOrientationText": "Tra>Cor(11.1)>Sag(2.6)",
  "ImageType": [
    "ORIGINAL",
    "PRIMARY",
    "P",
    "ND",
    "PHASE"
],
  "ImagingFrequency": 123.182,
  "InPlanePhaseEncodingDirectionDICOM": "ROW",
  "InstitutionAddress": "First Avenue 660,New York,NYC,US,10016",
  "InstitutionName": "NYU LANGONE CBI",
  "InstitutionalDepartmentName": "Department",
  "MRAcquisitionType": "2D",
  "MagneticFieldStrength": 3,
  "Manufacturer": "Siemens",
  "ManufacturersModelName": "Skyra",
  "MatrixCoilMode": "SENSE",
  "Modality": "MR",
  "MultibandAccelerationFactor": 2,
  "NonlinearGradientCorrection": false,
  "PartialFourier": 1,
  "PatientPosition": "HFS",
  "PercentPhaseFOV": 100,
  "PercentSampling": 100,
  "PhaseEncodingDirection": "i",
  "PhaseEncodingSteps": 72,
  "PhaseResolution": 1,
  "PixelBandwidth": 290,
  "ProcedureStepDescription": "MRI BRAIN WITHOUT IV CONTRAST",
  "ProtocolName": "gre_fm_bold",
  "PulseSequenceDetails": "%SiemensSeq%\\gre_field_mapping",
  "ReceiveCoilActiveElements": "HE1-4",
  "ReceiveCoilName": "HeadNeck_20",
  "ReconMatrixPE": 72,
  "RepetitionTime": 0.444,
  "SAR": 0.213644,
  "ScanningSequence": "GR",
  "SequenceName": "*fm2d2r",
  "SequenceVariant": "SP",
  "SeriesDescription": "gre_fm_bold",
  "SeriesNumber": 5,
  "ShimSetting": [-873, -7026, 5081, 330, -204, -171, 25, -130],
  "SliceThickness": 3,
  "SliceTiming": [0.21875, 0, 0.23438, 0.01562, 0.25, 0.03125, 0.26562, 0.04688, 0.26562, 0.04688, 0.28125, 0.0625, 0.29688, 0.07812, 0.3125, 0.07812, 0.3125, 0.09375, 0.32812, 0.10938, 0.34375, 0.125, 0.35938, 0.125, 0.35938, 0.14062, 0.375, 0.15625, 0.39062, 0.17188, 0.40625, 0.17188, 0.40625, 0.1875, 0.42188, 0.20312, 0.4375, 0.21875],
  "SoftwareVersions": "syngo MR E11",
  "SpacingBetweenSlices": 3,
  "StationName": "MRC45219",
  "TxRefAmp": 435.26,
  "dcmmeta_affine": [
    [-2.9969117641448975, 1.3018559563704457e-09, 0.13608551025390625, 105.37191009521484],
    [0.026200436055660248, 2.943873882293701, 0.5769922733306885, -120.76264953613281],
    [0.13353966176509857, -0.5775870680809021, 2.9408416748046875, -6.2602691650390625],
    [0.0, 0.0, 0.0, 1.0]
],
  "dcmmeta_reorient_transform": [
    [0.0, -1.0, 0.0, 71.0],
    [1.0, 0.0, 0.0, 0.0],
    [0.0, 0.0, -1.0, 37.0],
    [0.0, 0.0, 0.0, 1.0]
],
  "dcmmeta_shape": [72, 72, 38],
  "dcmmeta_slice_dim": 2,
  "dcmmeta_version": 0.6,
  "global": {
    "const": {
      "AccessionNumber": "REMOVED",
      "AcquisitionMatrix": [0, 72, 72, 0],
      "AcquisitionNumber": 1,
      "AngioFlag": "N",
      "BitsAllocated": 16,
      "BitsStored": 12,
      "BodyPartExamined": "BRAIN",
      "Columns": 72,
      "CountryOfResidence": "REMOVED",
      "DeidentificationMethod": "anonymize.default",
      "DeidentificationMethodCodeSequence": [
        {
          "CodeMeaning": "Basic Anonymization",
          "CodeValue": "113199",
          "CodingSchemeDesignator": "2012CDX"
        }
],
      "EchoNumbers": 2,
      "EchoTime": 7.38,
      "EchoTrainLength": 0,
      "FlipAngle": 60.0,
      "HighBit": 11,
      "ImageOrientationPatient": [0.99897062005241, -0.0087334787753, 0.0445132184927, 4.33952e-10, 0.98129128097626, 0.19252901568328],
      "ImageType": [
        "ORIGINAL",
        "PRIMARY",
        "P",
        "ND"
],
      "ImagedNucleus": "1H",
      "ImagingFrequency": 123.181851,
      "InPlanePhaseEncodingDirection": "ROW",
      "MRAcquisitionType": "2D",
      "MagneticFieldStrength": 3.0,
      "Manufacturer": "SIEMENS",
      "ManufacturerModelName": "Skyra",
      "Modality": "MR",
      "NumberOfAverages": 1.0,
      "NumberOfPhaseEncodingSteps": 72,
      "PercentPhaseFieldOfView": 100.0,
      "PercentSampling": 100.0,
      "PerformedProcedureStepStartTime": "160656.580000",
      "PhotometricInterpretation": "MONOCHROME2",
      "PixelBandwidth": 290.0,
      "PixelRepresentation": 0,
      "PixelSpacing": [3.0, 3.0],
      "PregnancyStatus": 0,
      "ProcedureCodeSequence": [
        {
          "CodeMeaning": "MRI BRAIN WITHOUT IV CONTRAST",
          "CodeValue": "IMG269",
          "CodingSchemeDesignator": "L"
        }
],
      "ProtocolName": "gre_fm_bold",
      "RepetitionTime": 444.0,
      "RequestAttributesSequence": [
        {
          "RequestedProcedureID": "331159177",
          "ScheduledProcedureStepDescription": "MRI BRAIN WITHOUT IV CONTRAST",
          "ScheduledProcedureStepID": "E10595114",
          "ScheduledProtocolCodeSequence": [
            {
              "CodeMeaning": "MRI BRAIN WITHOUT IV CONTRAST",
              "CodeValue": "651061",
              "CodingSchemeDesignator": "L"
            }
]
        }
],
      "RequestedProcedureCodeSequence": [
        {
          "CodeMeaning": "MRI BRAIN WITHOUT IV CONTRAST",
          "CodeValue": "IMG269",
          "CodingSchemeDesignator": "L"
        }
],
      "RescaleIntercept": -4096.0,
      "RescaleSlope": 2.0,
      "RescaleType": "US",
      "Rows": 72,
      "SAR": 0.21364401591814,
      "SamplesPerPixel": 1,
      "ScanningSequence": "GR",
      "SequenceName": "*fm2d2r",
      "SequenceVariant": "SP",
      "SeriesDescription": "gre_fm_bold",
      "SeriesNumber": 5,
      "SeriesTime": "161819.477000",
      "SliceThickness": 3.0,
      "SmokingStatus": "REMOVED",
      "SoftwareVersions": "syngo MR E11",
      "SpacingBetweenSlices": 3.0,
      "SpecificCharacterSet": "ISO_IR 100",
      "StudyID": "REMOVED",
      "StudyTime": "160656.417000",
      "TransmitCoilName": "Body",
      "VariableFlipAngleFlag": "N",
      "WindowCenterWidthExplanation": "Algo1",
      "dBdt": 0.0},
    "slices": {
      "AcquisitionTime": ["161715.302500", "161715.082500", "161715.315000", "161715.092500", "161715.327500", "161715.105000", "161715.337500", "161715.117500", "161715.350000", "161715.127500", "161715.362500", "161715.140000", "161715.372500", "161715.152500", "161715.385000", "161715.162500", "161715.397500", "161715.175000", "161715.410000", "161715.187500", "161715.420000", "161715.197500", "161715.432500", "161715.210000", "161715.445000", "161715.222500", "161715.455000", "161715.232500", "161715.467500", "161715.245000", "161715.480000", "161715.257500", "161715.490000", "161715.267500", "161715.502500", "161715.280000", "161715.515000", "161715.292500"],
      "ContentTime": ["161819.538000", "161819.479000", "161819.540000", "161819.485000", "161819.542000", "161819.488000", "161819.544000", "161819.490000", "161819.547000", "161819.494000", "161819.555000", "161819.497000", "161819.558000", "161819.499000", "161819.560000", "161819.501000", "161819.562000", "161819.504000", "161819.565000", "161819.506000", "161819.567000", "161819.508000", "161819.569000", "161819.510000", "161819.571000", "161819.519000", "161819.573000", "161819.521000", "161819.575000", "161819.524000", "161819.578000", "161819.528000", "161819.580000", "161819.530000", "161819.582000", "161819.532000", "161819.584000", "161819.535000"],
      "CsaImage.ICE_Dims": [
        "X_2_1_1_1_1_1_20_1_1_1_1_1659",
        "X_2_1_1_1_1_1_1_1_1_2_1_1659",
        "X_2_1_1_1_1_1_21_1_1_3_1_1659",
        "X_2_1_1_1_1_1_2_1_1_4_1_1659",
        "X_2_1_1_1_1_1_22_1_1_5_1_1659",
        "X_2_1_1_1_1_1_3_1_1_6_1_1659",
        "X_2_1_1_1_1_1_23_1_1_7_1_1659",
        "X_2_1_1_1_1_1_4_1_1_8_1_1659",
        "X_2_1_1_1_1_1_24_1_1_9_1_1659",
        "X_2_1_1_1_1_1_5_1_1_10_1_1659",
        "X_2_1_1_1_1_1_25_1_1_11_1_1659",
        "X_2_1_1_1_1_1_6_1_1_12_1_1659",
        "X_2_1_1_1_1_1_26_1_1_13_1_1659",
        "X_2_1_1_1_1_1_7_1_1_14_1_1659",
        "X_2_1_1_1_1_1_27_1_1_15_1_1659",
        "X_2_1_1_1_1_1_8_1_1_16_1_1659",
        "X_2_1_1_1_1_1_28_1_1_17_1_1659",
        "X_2_1_1_1_1_1_9_1_1_18_1_1659",
        "X_2_1_1_1_1_1_29_1_1_19_1_1659",
        "X_2_1_1_1_1_1_10_1_1_20_1_1659",
        "X_2_1_1_1_1_1_30_1_1_21_1_1659",
        "X_2_1_1_1_1_1_11_1_1_22_1_1659",
        "X_2_1_1_1_1_1_31_1_1_23_1_1659",
        "X_2_1_1_1_1_1_12_1_1_24_1_1659",
        "X_2_1_1_1_1_1_32_1_1_25_1_1659",
        "X_2_1_1_1_1_1_13_1_1_26_1_1659",
        "X_2_1_1_1_1_1_33_1_1_27_1_1659",
        "X_2_1_1_1_1_1_14_1_1_28_1_1659",
        "X_2_1_1_1_1_1_34_1_1_29_1_1659",
        "X_2_1_1_1_1_1_15_1_1_30_1_1659",
        "X_2_1_1_1_1_1_35_1_1_31_1_1659",
        "X_2_1_1_1_1_1_16_1_1_32_1_1659",
        "X_2_1_1_1_1_1_36_1_1_33_1_1659",
        "X_2_1_1_1_1_1_17_1_1_34_1_1659",
        "X_2_1_1_1_1_1_37_1_1_35_1_1659",
        "X_2_1_1_1_1_1_18_1_1_36_1_1659",
        "X_2_1_1_1_1_1_38_1_1_37_1_1659",
        "X_2_1_1_1_1_1_19_1_1_38_1_1659"
],
      "CsaImage.ProtocolSliceNumber": [0, 1, 2, 3, 4, 5, 6, 7, 8, 9, 10, 11, 12, 13, 14, 15, 16, 17, 18, 19, 20, 21, 22, 23, 24, 25, 26, 27, 28, 29, 30, 31, 32, 33, 34, 35, 36, 37],
      "CsaImage.SliceMeasurementDuration": [63050.0, 63047.5, 63047.5, 63050.0, 63047.5, 63047.5, 63050.0, 63047.5, 63047.5, 63050.0, 63047.5, 63047.5, 63050.0, 63047.5, 63047.5, 63050.0, 63047.5, 63047.5, 63047.5, 63047.5, 63047.5, 63050.0, 63047.5, 63047.5, 63047.5, 63047.5, 63047.5, 63050.0, 63047.5, 63047.5, 63047.5, 63047.5, 63047.5, 63050.0, 63047.5, 63047.5, 63047.5, 63047.5],
      "CsaImage.SlicePosition_PCS": [
        [-105.37190502, -88.25238148, -47.2690126],
        [-105.50799076, -88.82937351, -44.32816902],
        [-105.64407627, -89.40636555, -41.38732544],
        [-105.78016202, -89.98335854, -38.44648185],
        [-105.91624765, -90.56035057, -35.50563827],
        [-106.05233328, -91.13734356, -32.56479517],
        [-106.18841891, -91.71433559, -29.62395158],
        [-106.32450454, -92.29132858, -26.68310812],
        [-106.46059017, -92.86832062, -23.74226466],
        [-106.59667592, -93.44531361, -20.80142131],
        [-106.73276155, -94.02230564, -17.86057773],
        [-106.86884718, -94.59929863, -14.91973415],
        [-107.00493281, -95.17629066, -11.97889057],
        [-107.14101844, -95.75328365, -9.03804794],
        [-107.27710413, -96.33027569, -6.09720436],
        [-107.41318976, -96.90726868, -3.15636078],
        [-107.54927541, -97.48426119, -0.21551719],
        [-107.68536104, -98.0612537, 2.72532639],
        [-107.8214467, -98.63824621, 5.66616997],
        [-107.95753235, -99.21523872, 8.60701165],
        [-108.09361799, -99.79223124, 11.54785714],
        [-108.22970365, -100.36922375, 14.48869881],
        [-108.36578928, -100.94621626, 17.4295443],
        [-108.50187491, -101.52320877, 20.37038597],
        [-108.6379606, -102.10020128, 23.31123146],
        [-108.77404623, -102.67719379, 26.25207314],
        [-108.91013186, -103.25418631, 29.19291863],
        [-109.04621749, -103.83117882, 32.1337603],
        [-109.18230324, -104.40817139, 35.07460579],
        [-109.31838887, -104.9851639, 38.01544747],
        [-109.4544745, -105.56215641, 40.95629296],
        [-109.59056012, -106.13914898, 43.89713463],
        [-109.72664575, -106.7161415, 46.83797631],
        [-109.86273138, -107.29313389, 49.77882561],
        [-109.99881713, -107.8701264, 52.71966729],
        [-110.13490264, -108.44711891, 55.66050896],
        [-110.27098839, -109.02411166, 58.60135064],
        [-110.4070739, -109.60110394, 61.54219231]
],
      "CsaImage.TimeAfterStart": [0.67, 0.4475, 0.68, 0.46, 0.6925, 0.47, 0.705, 0.4825, 0.715, 0.495, 0.7275, 0.505, 0.74, 0.5175, 0.75, 0.53, 0.7625, 0.54, 0.775, 0.5525, 0.785, 0.565, 0.7975, 0.575, 0.81, 0.5875, 0.82, 0.6, 0.8325, 0.61, 0.845, 0.6225, 0.855, 0.635, 0.8675, 0.645, 0.88, 0.6575],
      "ImagePositionPatient": [
        [-105.37190501546, -88.252381477425, -47.26901260021],
        [-105.50799076413, -88.829373512337, -44.328169018057],
        [-105.64407627438, -89.406365547249, -41.387325435904],
        [-105.78016202306, -89.983358535835, -38.44648185375],
        [-105.91624765252, -90.560350570747, -35.505638271597],
        [-106.05233328198, -91.137343559334, -32.564795166281],
        [-106.18841891145, -91.714335594246, -29.623951584127],
        [-106.32450454091, -92.291328582832, -26.683108121183],
        [-106.46059017037, -92.868320617744, -23.742264658239],
        [-106.59667591904, -93.445313606331, -20.801421314505],
        [-106.73276154851, -94.022305641243, -17.860577732351],
        [-106.86884717797, -94.599298629829, -14.919734150198],
        [-107.00493280743, -95.176290664741, -11.978890568045],
        [-107.1410184369, -95.753283653328, -9.0380479395656],
        [-107.27710412596, -96.33027568824, -6.0972043574123],
        [-107.41318975543, -96.907268676826, -3.156360775259],
        [-107.54927541469, -97.484261188576, -0.2155171931057],
        [-107.68536104416, -98.061253700325, 2.7253263890477],
        [-107.82144669597, -98.638246212074, 5.666169971201],
        [-107.95753234779, -99.215238723824, 8.6070116460057],
        [-108.09361799215, -99.792231235573, 11.547857135508],
        [-108.22970365142, -100.36922374732, 14.488698810312],
        [-108.36578928088, -100.94621625907, 17.429544299814],
        [-108.50187491034, -101.52320877082, 20.370385974619],
        [-108.63796059941, -102.10020128257, 23.311231464121],
        [-108.77404622887, -102.67719379432, 26.252073138926],
        [-108.91013185834, -103.25418630607, 29.192918628428],
        [-109.0462174878, -103.83117881782, 32.133760303232],
        [-109.18230323647, -104.40817138917, 35.074605792734],
        [-109.31838886594, -104.9851638972, 38.015447467539],
        [-109.4544744954, -105.56215641267, 40.956292957041],
        [-109.59056012486, -106.13914898402, 43.897134631846],
        [-109.72664575433, -106.71614149577, 46.83797630665],
        [-109.86273138379, -107.29313388831, 49.778825610849],
        [-109.99881713246, -107.87012640006, 52.719667285654],
        [-110.13490264272, -108.44711891181, 55.660508960459],
        [-110.27098839139, -109.02411166198, 58.601350635263],
        [-110.40707390164, -109.60110393531, 61.542192310068]
],
      "InstanceCreationTime": ["161819.538000", "161819.479000", "161819.540000", "161819.485000", "161819.542000", "161819.488000", "161819.544000", "161819.490000", "161819.547000", "161819.494000", "161819.555000", "161819.497000", "161819.558000", "161819.499000", "161819.560000", "161819.501000", "161819.562000", "161819.504000", "161819.565000", "161819.506000", "161819.567000", "161819.508000", "161819.569000", "161819.510000", "161819.571000", "161819.519000", "161819.573000", "161819.521000", "161819.575000", "161819.524000", "161819.578000", "161819.528000", "161819.580000", "161819.530000", "161819.582000", "161819.532000", "161819.584000", "161819.535000"],
      "InstanceNumber": [1, 2, 3, 4, 5, 6, 7, 8, 9, 10, 11, 12, 13, 14, 15, 16, 17, 18, 19, 20, 21, 22, 23, 24, 25, 26, 27, 28, 29, 30, 31, 32, 33, 34, 35, 36, 37, 38],
      "LargestImagePixelValue": [4095, 4095, 4094, 4094, 4082, 4084, 4089, 4093, 4091, 4090, 4094, 4083, 4093, 4095, 4073, 4092, 4094, 4093, 4084, 4082, 4079, 4072, 4082, 4094, 4076, 4095, 4089, 4089, 4090, 4093, 4093, 4086, 4088, 4095, 4094, 4093, 4095, 4095],
      "SliceLocation": [-24.583400839031, -21.583400820025, -18.583400811834, -15.583400609407, -12.583400595809, -9.5834008662238, -6.5834008526253, -3.5834007724645, -0.5834008757247, 2.416599092985, 5.4165991065834, 8.4165993036028, 11.416599317201, 14.416598579352, 17.416598595654, 20.416598792673, 23.416598899334, 26.416599004643, 29.416599110966, 32.416597347551, 35.416599323274, 38.416597560196, 41.416599535243, 44.416597770814, 47.416599748565, 50.416597984136, 53.416599959183, 56.416598194754, 59.416600186672, 62.416598421526, 65.41660039729, 68.416598644324, 71.416596879895, 74.416602571491, 77.416600812469, 80.416599042633, 83.416597329466, 86.416595513774],
      "SmallestImagePixelValue": [3, 1, 0, 0, 4, 1, 6, 0, 3, 1, 1, 1, 8, 2, 0, 2, 2, 3, 0, 1, 47, 13, 3, 2, 7, 0, 5, 2, 0, 1, 1, 3, 4, 0, 1, 1, 0, 0],
      "WindowCenter": [-278.0, -332.0, -366.0, -300.0, -312.0, -342.0, -294.0, -230.0, -154.0, -126.0, -126.0, -162.0, -184.0, -160.0, -164.0, -118.0, -86.0, -52.0, -32.0, -42.0, -52.0, -240.0, -234.0, -230.0, -234.0, -226.0, -254.0, -238.0, -294.0, -144.0, -126.0, -120.0, -144.0, -132.0, -124.0, -180.0, -228.0, -262.0],
      "WindowWidth": [6060.0, 6024.0, 5914.0, 6066.0, 5992.0, 5818.0, 5782.0, 5822.0, 5794.0, 5772.0, 5798.0, 5700.0, 5614.0, 5600.0, 5430.0, 5472.0, 5528.0, 5508.0, 5570.0, 5440.0, 5350.0, 4592.0, 4586.0, 4574.0, 4574.0, 4566.0, 4600.0, 4610.0, 4640.0, 5096.0, 5252.0, 5376.0, 5550.0, 5704.0, 5916.0, 5974.0, 6114.0, 6310.0]
    }
  }
}