{
  "AcquisitionMatrixPE": 72,
  "AcquisitionNumber": 1,
  "AcquisitionTime": "15:51:34.662500",
  "BandwidthPerPixelPhaseEncode": 24.366,
  "BaseResolution": 72,
  "BodyPartExamined": "BRAIN",
  "CoilCombinationMethod": "Sum of Squares",
  "ConsistencyInfo": "N4_VE11C_LATEST_20160120",
  "ConversionSoftware": "dcm2niix",
  "ConversionSoftwareVersion": "v1.0.20220720",
  "DerivedVendorReportedEchoSpacing": 0.000570011,
  "DeviceSerialNumber": "45219",
  "DwellTime": 3.5e-06,
  "EchoTime": 0.03,
  "EchoTrainLength": 72,
  "EffectiveEchoSpacing": 0.000570011,
  "FlipAngle": 80,
  "HeudiconvVersion": "1.1.6",
  "ImageOrientationPatientDICOM": [0.99923, -0.0119639, 0.0373601, 0.00872019, 0.996273, 0.0858088],
  "ImageOrientationText": "Tra>Cor(4.9)>Sag(2.2)",
  "ImageType": [
    "ORIGINAL",
    "PRIMARY",
    "M",
    "ND",
    "NORM",
    "MOSAIC"
],
  "ImagingFrequency": 123.182,
  "InPlanePhaseEncodingDirectionDICOM": "COL",
  "InstitutionAddress": "First Avenue 660,New York,NYC,US,10016",
  "InstitutionName": "NYU LANGONE CBI",
  "InstitutionalDepartmentName": "Department",
  "MRAcquisitionType": "2D",
  "MagneticFieldStrength": 3,
  "Manufacturer": "Siemens",
  "ManufacturersModelName": "Skyra",
  "MatrixCoilMode": "SENSE",
  "Modality": "MR",
  "NonlinearGradientCorrection": false,
  "PartialFourier": 1,
  "PatientPosition": "HFS",
  "PercentPhaseFOV": 100,
  "PercentSampling": 100,
  "PhaseEncodingDirection": "j-",
  "PhaseEncodingSteps": 72,
  "PhaseResolution": 1,
  "PixelBandwidth": 1985,
  "ProcedureStepDescription": "MRI BRAIN WITHOUT IV CONTRAST",
  "ProtocolName": "REST_1",
  "PulseSequenceDetails": "%SiemensSeq%\\ep2d_bold",
  "ReceiveCoilActiveElements": "HE1-4",
  "ReceiveCoilName": "HeadNeck_20",
  "ReconMatrixPE": 72,
  "RepetitionTime": 2.5,
  "SAR": 0.116677,
  "ScanOptions": "FS",
  "ScanningSequence": "EP",
  "SequenceName": "*epfid2d1_72",
  "SequenceVariant": "SK",
  "SeriesDescription": "REST_1",
  "SeriesNumber": 6,
  "ShimSetting": [-822, -6944, 5042, 206, -68, 480, 509, -189],
  "SliceThickness": 3,
  "SliceTiming": [1.24, 0, 1.305, 0.0675, 1.3725, 0.1325, 1.4375, 0.1975, 1.5025, 0.2625, 1.5675, 0.3275, 1.6325, 0.3925, 1.6975, 0.4575, 1.7625, 0.5225, 1.8275, 0.5875, 1.8925, 0.6525, 1.96, 0.72, 2.025, 0.785, 2.09, 0.85, 2.155, 0.915, 2.22, 0.98, 2.285, 1.045, 2.35, 1.11, 2.415, 1.175],
  "SoftwareVersions": "syngo MR E11",
  "SpacingBetweenSlices": 3,
  "StationName": "MRC45219",
  "TaskName": "rest",
  "TotalReadoutTime": 0.0404708,
  "TxRefAmp": 402.191,
  "dcmmeta_affine": [
    [-2.9976906776428223, 0.02616056054830551, 0.11474254727363586, 106.4600601196289],
    [0.03589165583252907, 2.9888203144073486, 0.2562507688999176, -108.5068359375],
    [0.1120803952217102, -0.25742629170417786, 2.986832857131958, -35.04179382324219],
    [0.0, 0.0, 0.0, 1.0]
],
  "dcmmeta_reorient_transform": [
    [0.0, -1.0, 0.0, 71.0],
    [1.0, 0.0, 0.0, 0.0],
    [0.0, 0.0, 1.0, 0.0],
    [0.0, 0.0, 0.0, 1.0]
],
  "dcmmeta_shape": [72, 72, 38, 122],
  "dcmmeta_slice_dim": 2,
  "dcmmeta_version": 0.6,
  "global": {
    "const": {
      "AccessionNumber": "17355688",
      "AcquisitionMatrix": [72, 0, 0, 72],
      "AngioFlag": "N",
      "BitsAllocated": 16,
      "BitsStored": 12,
      "BodyPartExamined": "BRAIN",
      "Columns": 504,
      "CountryOfResidence": "United States of America [1]",
      "EchoNumbers": 1,
      "EchoTime": 30.0,
      "EchoTrainLength": 72,
      "FlipAngle": 80.0,
      "HighBit": 11,
      "ImageOrientationPatient": [0.99923024670498, -0.0119638853974, 0.03736013270981, 0.00872018712902, 0.99627346364981, 0.0858087639093],
      "ImagePositionPatient": [-761.4693442684, -741.53201570145, -133.13250484429],
      "ImageType": [
        "ORIGINAL",
        "PRIMARY",
        "M",
        "ND",
        "NORM",
        "MOSAIC"
],
      "ImagedNucleus": "1H",
      "ImagingFrequency": 123.182065,
      "InPlanePhaseEncodingDirection": "COL",
      "MRAcquisitionType": "2D",
      "MagneticFieldStrength": 3.0,
      "Manufacturer": "SIEMENS",
      "ManufacturerModelName": "Skyra",
      "Modality": "MR",
      "NumberOfAverages": 1.0,
      "NumberOfPhaseEncodingSteps": 72,
      "PercentPhaseFieldOfView": 100.0,
      "PercentSampling": 100.0,
      "PerformedProcedureStepStartTime": "154228.653000",
      "PhotometricInterpretation": "MONOCHROME2",
      "PixelBandwidth": 1985.0,
      "PixelRepresentation": 0,
      "PixelSpacing": [3.0, 3.0],
      "PregnancyStatus": 4,
      "ProcedureCodeSequence": [
        {
          "CodeMeaning": "MRI BRAIN WITHOUT IV CONTRAST",
          "CodeValue": "IMG269",
          "CodingSchemeDesignator": "L"
        }
],
      "ProtocolName": "REST_1",
      "RepetitionTime": 2500.0,
      "RequestAttributesSequence": [
        {
          "RequestedProcedureID": "320142780",
          "ScheduledProcedureStepDescription": "MRI BRAIN WITHOUT IV CONTRAST",
          "ScheduledProcedureStepID": "E9429891",
          "ScheduledProtocolCodeSequence": [
            {
              "CodeMeaning": "MRI BRAIN WITHOUT IV CONTRAST",
              "CodeValue": "651061",
              "CodingSchemeDesignator": "L"
            }
]
        }
],
      "RequestedProcedureCodeSequence": [
        {
          "CodeMeaning": "MRI BRAIN WITHOUT IV CONTRAST",
          "CodeValue": "IMG269",
          "CodingSchemeDesignator": "L"
        }
],
      "Rows": 504,
      "SAR": 0.11667650216489,
      "SamplesPerPixel": 1,
      "ScanOptions": "FS",
      "ScanningSequence": "EP",
      "SequenceName": "*epfid2d1_72",
      "SequenceVariant": "SK",
      "SeriesDescription": "REST_1",
      "SeriesNumber": 6,
      "SeriesTime": "155235.902000",
      "SliceLocation": -40.084479040673,
      "SliceThickness": 3.0,
      "SmallestImagePixelValue": 0,
      "SmokingStatus": "UNKNOWN",
      "SoftwareVersions": "syngo MR E11",
      "SpacingBetweenSlices": 3.0000000798686,
      "SpecificCharacterSet": "ISO_IR 100",
      "StudyID": "320142780",
      "StudyTime": "154228.513000",
      "TransmitCoilName": "Body",
      "VariableFlipAngleFlag": "N",
      "WindowCenterWidthExplanation": "Algo1",
      "dBdt": 0.0},
    "slices": {}
  },
  "time": {
    "samples": {
      "AcquisitionNumber": [1, 2, 3, 4, 5, 6, 7, 8, 9, 10, 11, 12, 13, 14, 15, 16, 17, 18, 19, 20, 21, 22, 23, 24, 25, 26, 27, 28, 29, 30, 31, 32, 33, 34, 35, 36, 37, 38, 39, 40, 41, 42, 43, 44, 45, 46, 47, 48, 49, 50, 51, 52, 53, 54, 55, 56, 57, 58, 59, 60, 61, 62, 63, 64, 65, 66, 67, 68, 69, 70, 71, 72, 73, 74, 75, 76, 77, 78, 79, 80, 81, 82, 83, 84, 85, 86, 87, 88, 89, 90, 91, 92, 93, 94, 95, 96, 97, 98, 99, 100, 101, 102, 103, 104, 105, 106, 107, 108, 109, 110, 111, 112, 113, 114, 115, 116, 117, 118, 119, 120, 121, 122],
      "AcquisitionTime": ["155134.662500", "155137.162500", "155139.662500", "155142.162500", "155144.662500", "155147.162500", "155149.662500", "155152.162500", "155154.662500", "155157.162500", "155159.662500", "155202.162500", "155204.662500", "155207.162500", "155209.662500", "155212.162500", "155214.662500", "155217.162500", "155219.662500", "155222.162500", "155224.662500", "155227.162500", "155229.662500", "155232.162500", "155234.662500", "155237.162500", "155239.662500", "155242.162500", "155244.662500", "155247.162500", "155249.662500", "155252.162500", "155254.662500", "155257.162500", "155259.662500", "155302.162500", "155304.662500", "155307.162500", "155309.662500", "155312.162500", "155314.662500", "155317.162500", "155319.662500", "155322.162500", "155324.662500", "155327.162500", "155329.662500", "155332.162500", "155334.662500", "155337.162500", "155339.662500", "155342.162500", "155344.662500", "155347.162500", "155349.662500", "155352.162500", "155354.662500", "155357.162500", "155359.662500", "155402.162500", "155404.662500", "155407.162500", "155409.662500", "155412.162500", "155414.662500", "155417.162500", "155419.662500", "155422.162500", "155424.662500", "155427.162500", "155429.662500", "155432.162500", "155434.662500", "155437.162500", "155439.662500", "155442.162500", "155444.662500", "155447.162500", "155449.662500", "155452.162500", "155454.662500", "155457.162500", "155459.662500", "155502.162500", "155504.662500", "155507.162500", "155509.662500", "155512.162500", "155514.662500", "155517.162500", "155519.662500", "155522.162500", "155524.662500", "155527.162500", "155529.662500", "155532.162500", "155534.662500", "155537.162500", "155539.662500", "155542.162500", "155544.662500", "155547.162500", "155549.662500", "155552.162500", "155554.662500", "155557.162500", "155559.662500", "155602.162500", "155604.662500", "155607.162500", "155609.662500", "155612.162500", "155614.662500", "155617.162500", "155619.662500", "155622.162500", "155624.662500", "155627.162500", "155629.662500", "155632.162500", "155634.662500", "155637.162500"],
      "ContentTime": ["155235.906000", "155235.909000", "155235.912000", "155235.915000", "155235.917000", "155235.920000", "155235.926000", "155235.929000", "155235.931000", "155235.934000", "155235.937000", "155235.939000", "155235.942000", "155235.945000", "155235.947000", "155235.950000", "155235.975000", "155235.978000", "155235.980000", "155235.983000", "155235.986000", "155235.988000", "155235.991000", "155235.994000", "155335.900000", "155335.902000", "155335.905000", "155335.908000", "155335.911000", "155335.913000", "155335.916000", "155335.919000", "155335.921000", "155335.924000", "155335.927000", "155335.929000", "155335.932000", "155335.935000", "155335.937000", "155335.940000", "155335.943000", "155335.945000", "155335.948000", "155335.951000", "155335.953000", "155335.956000", "155335.959000", "155335.961000", "155435.900000", "155435.903000", "155435.905000", "155435.908000", "155435.911000", "155435.913000", "155435.922000", "155435.924000", "155435.927000", "155435.930000", "155435.932000", "155435.935000", "155435.938000", "155435.940000", "155435.943000", "155435.946000", "155435.948000", "155435.951000", "155435.954000", "155435.956000", "155435.959000", "155435.962000", "155435.964000", "155435.967000", "155535.901000", "155535.903000", "155535.906000", "155535.909000", "155535.912000", "155535.914000", "155535.917000", "155535.920000", "155535.922000", "155535.925000", "155535.928000", "155535.930000", "155535.933000", "155535.936000", "155535.938000", "155535.941000", "155535.944000", "155535.946000", "155535.949000", "155535.952000", "155535.955000", "155535.957000", "155535.960000", "155535.963000", "155635.900000", "155635.903000", "155635.905000", "155635.908000", "155635.911000", "155635.913000", "155635.916000", "155635.918000", "155635.921000", "155635.924000", "155635.927000", "155635.929000", "155635.932000", "155635.935000", "155635.938000", "155635.940000", "155635.943000", "155635.946000", "155635.948000", "155635.951000", "155635.954000", "155635.956000", "155635.959000", "155635.962000", "155639.218000", "155639.221000"],
      "InstanceCreationTime": ["155235.906000", "155235.909000", "155235.912000", "155235.915000", "155235.917000", "155235.920000", "155235.926000", "155235.929000", "155235.931000", "155235.934000", "155235.937000", "155235.939000", "155235.942000", "155235.945000", "155235.947000", "155235.950000", "155235.975000", "155235.978000", "155235.980000", "155235.983000", "155235.986000", "155235.988000", "155235.991000", "155235.994000", "155335.900000", "155335.902000", "155335.905000", "155335.908000", "155335.911000", "155335.913000", "155335.916000", "155335.919000", "155335.921000", "155335.924000", "155335.927000", "155335.929000", "155335.932000", "155335.935000", "155335.937000", "155335.940000", "155335.943000", "155335.945000", "155335.948000", "155335.951000", "155335.953000", "155335.956000", "155335.959000", "155335.961000", "155435.900000", "155435.903000", "155435.905000", "155435.908000", "155435.911000", "155435.913000", "155435.922000", "155435.924000", "155435.927000", "155435.930000", "155435.932000", "155435.935000", "155435.938000", "155435.940000", "155435.943000", "155435.946000", "155435.948000", "155435.951000", "155435.954000", "155435.956000", "155435.959000", "155435.962000", "155435.964000", "155435.967000", "155535.901000", "155535.903000", "155535.906000", "155535.909000", "155535.912000", "155535.914000", "155535.917000", "155535.920000", "155535.922000", "155535.925000", "155535.928000", "155535.930000", "155535.933000", "155535.936000", "155535.938000", "155535.941000", "155535.944000", "155535.946000", "155535.949000", "155535.952000", "155535.955000", "155535.957000", "155535.960000", "155535.963000", "155635.900000", "155635.903000", "155635.905000", "155635.908000", "155635.911000", "155635.913000", "155635.916000", "155635.918000", "155635.921000", "155635.924000", "155635.927000", "155635.929000", "155635.932000", "155635.935000", "155635.938000", "155635.940000", "155635.943000", "155635.946000", "155635.948000", "155635.951000", "155635.954000", "155635.956000", "155635.959000", "155635.962000", "155639.218000", "155639.221000"],
      "InstanceNumber": [1, 2, 3, 4, 5, 6, 7, 8, 9, 10, 11, 12, 13, 14, 15, 16, 17, 18, 19, 20, 21, 22, 23, 24, 25, 26, 27, 28, 29, 30, 31, 32, 33, 34, 35, 36, 37, 38, 39, 40, 41, 42, 43, 44, 45, 46, 47, 48, 49, 50, 51, 52, 53, 54, 55, 56, 57, 58, 59, 60, 61, 62, 63, 64, 65, 66, 67, 68, 69, 70, 71, 72, 73, 74, 75, 76, 77, 78, 79, 80, 81, 82, 83, 84, 85, 86, 87, 88, 89, 90, 91, 92, 93, 94, 95, 96, 97, 98, 99, 100, 101, 102, 103, 104, 105, 106, 107, 108, 109, 110, 111, 112, 113, 114, 115, 116, 117, 118, 119, 120, 121, 122],
      "LargestImagePixelValue": [1800, 1877, 1652, 1677, 1642, 1636, 1645, 1635, 1655, 1731, 1653, 1663, 1642, 1702, 1615, 1653, 1655, 1675, 1638, 1655, 1706, 1670, 1825, 1652, 1724, 1655, 1707, 1786, 1662, 1674, 1711, 1672, 1663, 1642, 1653, 1644, 1673, 1672, 1656, 1678, 1890, 1664, 1671, 1651, 1662, 1826, 1663, 1667, 1660, 1627, 1701, 1643, 1704, 1741, 1651, 1677, 1650, 1669, 1698, 1688, 1684, 1648, 1659, 1661, 1698, 1632, 1695, 1680, 1657, 1638, 1658, 1639, 1759, 1639, 1769, 1650, 1735, 1652, 1685, 1659, 1691, 1720, 1650, 1651, 1641, 1641, 1672, 1645, 1689, 1701, 1646, 1688, 1643, 1707, 1759, 1664, 1656, 1645, 1640, 1778, 1650, 1653, 1656, 1636, 1716, 1662, 1727, 1642, 1658, 1731, 1662, 1716, 1661, 1625, 1646, 1753, 1660, 1734, 1656, 1790, 1670, 1735],
      "WindowCenter": [659.0, 658.0, 656.0, 656.0, 656.0, 656.0, 656.0, 656.0, 656.0, 657.0, 657.0, 656.0, 655.0, 653.0, 653.0, 654.0, 656.0, 656.0, 657.0, 657.0, 657.0, 657.0, 658.0, 656.0, 656.0, 656.0, 656.0, 657.0, 655.0, 656.0, 656.0, 656.0, 656.0, 656.0, 655.0, 656.0, 656.0, 656.0, 656.0, 656.0, 657.0, 656.0, 656.0, 656.0, 656.0, 657.0, 656.0, 656.0, 656.0, 656.0, 657.0, 650.0, 658.0, 658.0, 656.0, 657.0, 657.0, 656.0, 656.0, 656.0, 655.0, 656.0, 656.0, 656.0, 656.0, 657.0, 657.0, 656.0, 656.0, 656.0, 656.0, 656.0, 657.0, 656.0, 656.0, 656.0, 657.0, 656.0, 657.0, 657.0, 657.0, 656.0, 656.0, 656.0, 656.0, 656.0, 656.0, 656.0, 657.0, 657.0, 652.0, 654.0, 657.0, 657.0, 657.0, 656.0, 655.0, 655.0, 655.0, 656.0, 655.0, 655.0, 655.0, 655.0, 656.0, 655.0, 656.0, 656.0, 656.0, 656.0, 656.0, 656.0, 656.0, 656.0, 656.0, 658.0, 657.0, 657.0, 656.0, 657.0, 656.0, 656.0],
      "WindowWidth": [1409.0, 1405.0, 1400.0, 1401.0, 1400.0, 1400.0, 1400.0, 1400.0, 1401.0, 1404.0, 1404.0, 1401.0, 1397.0, 1394.0, 1393.0, 1396.0, 1400.0, 1401.0, 1402.0, 1403.0, 1404.0, 1402.0, 1404.0, 1400.0, 1401.0, 1400.0, 1400.0, 1402.0, 1399.0, 1400.0, 1401.0, 1401.0, 1401.0, 1400.0, 1398.0, 1400.0, 1401.0, 1401.0, 1399.0, 1400.0, 1403.0, 1400.0, 1401.0, 1401.0, 1399.0, 1402.0, 1400.0, 1400.0, 1400.0, 1400.0, 1402.0, 1385.0, 1407.0, 1405.0, 1402.0, 1402.0, 1402.0, 1400.0, 1400.0, 1401.0, 1399.0, 1400.0, 1401.0, 1400.0, 1402.0, 1403.0, 1402.0, 1401.0, 1401.0, 1401.0, 1401.0, 1401.0, 1402.0, 1400.0, 1401.0, 1402.0, 1403.0, 1401.0, 1402.0, 1402.0, 1402.0, 1401.0, 1400.0, 1401.0, 1401.0, 1401.0, 1402.0, 1401.0, 1402.0, 1402.0, 1391.0, 1397.0, 1404.0, 1403.0, 1403.0, 1401.0, 1399.0, 1397.0, 1397.0, 1400.0, 1397.0, 1397.0, 1398.0, 1399.0, 1401.0, 1398.0, 1400.0, 1400.0, 1400.0, 1401.0, 1400.0, 1401.0, 1400.0, 1400.0, 1401.0, 1404.0, 1402.0, 1402.0, 1400.0, 1401.0, 1399.0, 1400.0]
    },
    "slices": {}
  }
}