{
  "AcquisitionMatrixPE": 72,
  "AcquisitionNumber": 1,
  "AcquisitionTime": "16:09:24.112500",
  "BandwidthPerPixelPhaseEncode": 24.366,
  "BaseResolution": 72,
  "BodyPartExamined": "BRAIN",
  "CoilCombinationMethod": "Sum of Squares",
  "ConsistencyInfo": "N4_VE11C_LATEST_20160120",
  "ConversionSoftware": "dcm2niix",
  "ConversionSoftwareVersion": "v1.0.20220720",
  "DerivedVendorReportedEchoSpacing": 0.000570011,
  "DeviceSerialNumber": "45219",
  "DwellTime": 3.5e-06,
  "EchoTime": 0.03,
  "EchoTrainLength": 72,
  "EffectiveEchoSpacing": 0.000570011,
  "FlipAngle": 80,
  "HeudiconvVersion": "1.1.6",
  "ImageOrientationPatientDICOM": [0.99923, -0.0119639, 0.0373601, 0.00872019, 0.996273, 0.0858088],
  "ImageOrientationText": "Tra>Cor(4.9)>Sag(2.2)",
  "ImageType": [
    "ORIGINAL",
    "PRIMARY",
    "M",
    "ND",
    "NORM",
    "MOSAIC"
],
  "ImagingFrequency": 123.182,
  "InPlanePhaseEncodingDirectionDICOM": "COL",
  "InstitutionAddress": "First Avenue 660,New York,NYC,US,10016",
  "InstitutionName": "NYU LANGONE CBI",
  "InstitutionalDepartmentName": "Department",
  "MRAcquisitionType": "2D",
  "MagneticFieldStrength": 3,
  "Manufacturer": "Siemens",
  "ManufacturersModelName": "Skyra",
  "MatrixCoilMode": "SENSE",
  "Modality": "MR",
  "NonlinearGradientCorrection": false,
  "PartialFourier": 1,
  "PatientPosition": "HFS",
  "PercentPhaseFOV": 100,
  "PercentSampling": 100,
  "PhaseEncodingDirection": "j-",
  "PhaseEncodingSteps": 72,
  "PhaseResolution": 1,
  "PixelBandwidth": 1985,
  "ProcedureStepDescription": "MRI BRAIN WITHOUT IV CONTRAST",
  "ProtocolName": "TASK_CD",
  "PulseSequenceDetails": "%SiemensSeq%\\ep2d_bold",
  "ReceiveCoilActiveElements": "HE1-4",
  "ReceiveCoilName": "HeadNeck_20",
  "ReconMatrixPE": 72,
  "RepetitionTime": 2.5,
  "SAR": 0.116718,
  "ScanOptions": "FS",
  "ScanningSequence": "EP",
  "SequenceName": "*epfid2d1_72",
  "SequenceVariant": "SK",
  "SeriesDescription": "TASK_CD",
  "SeriesNumber": 12,
  "ShimSetting": [-822, -6944, 5042, 206, -68, 480, 509, -189],
  "SliceThickness": 3,
  "SliceTiming": [1.24, 0, 1.305, 0.065, 1.37, 0.13, 1.435, 0.1975, 1.5025, 0.2625, 1.5675, 0.3275, 1.6325, 0.3925, 1.6975, 0.4575, 1.7625, 0.5225, 1.8275, 0.5875, 1.8925, 0.6525, 1.9575, 0.7175, 2.0225, 0.7825, 2.09, 0.85, 2.155, 0.915, 2.22, 0.98, 2.285, 1.045, 2.35, 1.11, 2.415, 1.175],
  "SoftwareVersions": "syngo MR E11",
  "SpacingBetweenSlices": 3,
  "StationName": "MRC45219",
  "TaskName": "cd",
  "TotalReadoutTime": 0.0404708,
  "TxRefAmp": 402.191,
  "dcmmeta_affine": [
    [-2.9976906776428223, 0.02616056054830551, 0.11474254727363586, 106.4600601196289],
    [0.03589165583252907, 2.9888203144073486, 0.2562507688999176, -108.5068359375],
    [0.1120803952217102, -0.25742629170417786, 2.986832857131958, -35.04179382324219],
    [0.0, 0.0, 0.0, 1.0]
],
  "dcmmeta_reorient_transform": [
    [0.0, -1.0, 0.0, 71.0],
    [1.0, 0.0, 0.0, 0.0],
    [0.0, 0.0, 1.0, 0.0],
    [0.0, 0.0, 0.0, 1.0]
],
  "dcmmeta_shape": [72, 72, 38, 132],
  "dcmmeta_slice_dim": 2,
  "dcmmeta_version": 0.6,
  "global": {
    "const": {
      "AccessionNumber": "17355688",
      "AcquisitionMatrix": [72, 0, 0, 72],
      "AngioFlag": "N",
      "BitsAllocated": 16,
      "BitsStored": 12,
      "BodyPartExamined": "BRAIN",
      "Columns": 504,
      "CountryOfResidence": "United States of America [1]",
      "EchoNumbers": 1,
      "EchoTime": 30.0,
      "EchoTrainLength": 72,
      "FlipAngle": 80.0,
      "HighBit": 11,
      "ImageOrientationPatient": [0.99923024670498, -0.0119638853974, 0.03736013270981, 0.00872018712902, 0.99627346364981, 0.0858087639093],
      "ImagePositionPatient": [-761.4693442684, -741.53201570145, -133.13250484429],
      "ImageType": [
        "ORIGINAL",
        "PRIMARY",
        "M",
        "ND",
        "NORM",
        "MOSAIC"
],
      "ImagedNucleus": "1H",
      "ImagingFrequency": 123.182134,
      "InPlanePhaseEncodingDirection": "COL",
      "MRAcquisitionType": "2D",
      "MagneticFieldStrength": 3.0,
      "Manufacturer": "SIEMENS",
      "ManufacturerModelName": "Skyra",
      "Modality": "MR",
      "NumberOfAverages": 1.0,
      "NumberOfPhaseEncodingSteps": 72,
      "PercentPhaseFieldOfView": 100.0,
      "PercentSampling": 100.0,
      "PerformedProcedureStepStartTime": "154228.653000",
      "PhotometricInterpretation": "MONOCHROME2",
      "PixelBandwidth": 1985.0,
      "PixelRepresentation": 0,
      "PixelSpacing": [3.0, 3.0],
      "PregnancyStatus": 4,
      "ProcedureCodeSequence": [
        {
          "CodeMeaning": "MRI BRAIN WITHOUT IV CONTRAST",
          "CodeValue": "IMG269",
          "CodingSchemeDesignator": "L"
        }
],
      "ProtocolName": "TASK_CD",
      "RepetitionTime": 2500.0,
      "RequestAttributesSequence": [
        {
          "RequestedProcedureID": "320142780",
          "ScheduledProcedureStepDescription": "MRI BRAIN WITHOUT IV CONTRAST",
          "ScheduledProcedureStepID": "E9429891",
          "ScheduledProtocolCodeSequence": [
            {
              "CodeMeaning": "MRI BRAIN WITHOUT IV CONTRAST",
              "CodeValue": "651061",
              "CodingSchemeDesignator": "L"
            }
]
        }
],
      "RequestedProcedureCodeSequence": [
        {
          "CodeMeaning": "MRI BRAIN WITHOUT IV CONTRAST",
          "CodeValue": "IMG269",
          "CodingSchemeDesignator": "L"
        }
],
      "Rows": 504,
      "SAR": 0.11671844298709,
      "SamplesPerPixel": 1,
      "ScanOptions": "FS",
      "ScanningSequence": "EP",
      "SequenceName": "*epfid2d1_72",
      "SequenceVariant": "SK",
      "SeriesDescription": "TASK_CD",
      "SeriesNumber": 12,
      "SeriesTime": "160935.903000",
      "SliceLocation": -40.084479040673,
      "SliceThickness": 3.0,
      "SmallestImagePixelValue": 0,
      "SmokingStatus": "UNKNOWN",
      "SoftwareVersions": "syngo MR E11",
      "SpacingBetweenSlices": 3.0000000798686,
      "SpecificCharacterSet": "ISO_IR 100",
      "StudyID": "320142780",
      "StudyTime": "154228.513000",
      "TransmitCoilName": "Body",
      "VariableFlipAngleFlag": "N",
      "WindowCenterWidthExplanation": "Algo1",
      "dBdt": 0.0},
    "slices": {}
  },
  "time": {
    "samples": {
      "AcquisitionNumber": [1, 2, 3, 4, 5, 6, 7, 8, 9, 10, 11, 12, 13, 14, 15, 16, 17, 18, 19, 20, 21, 22, 23, 24, 25, 26, 27, 28, 29, 30, 31, 32, 33, 34, 35, 36, 37, 38, 39, 40, 41, 42, 43, 44, 45, 46, 47, 48, 49, 50, 51, 52, 53, 54, 55, 56, 57, 58, 59, 60, 61, 62, 63, 64, 65, 66, 67, 68, 69, 70, 71, 72, 73, 74, 75, 76, 77, 78, 79, 80, 81, 82, 83, 84, 85, 86, 87, 88, 89, 90, 91, 92, 93, 94, 95, 96, 97, 98, 99, 100, 101, 102, 103, 104, 105, 106, 107, 108, 109, 110, 111, 112, 113, 114, 115, 116, 117, 118, 119, 120, 121, 122, 123, 124, 125, 126, 127, 128, 129, 130, 131, 132],
      "AcquisitionTime": ["160924.112500", "160926.612500", "160929.112500", "160931.612500", "160934.112500", "160936.612500", "160939.112500", "160941.612500", "160944.112500", "160946.612500", "160949.112500", "160951.612500", "160954.112500", "160956.612500", "160959.112500", "161001.612500", "161004.112500", "161006.612500", "161009.112500", "161011.612500", "161014.112500", "161016.612500", "161019.112500", "161021.612500", "161024.112500", "161026.612500", "161029.112500", "161031.612500", "161034.112500", "161036.612500", "161039.112500", "161041.612500", "161044.112500", "161046.612500", "161049.112500", "161051.612500", "161054.112500", "161056.612500", "161059.112500", "161101.612500", "161104.112500", "161106.612500", "161109.112500", "161111.612500", "161114.112500", "161116.612500", "161119.112500", "161121.612500", "161124.112500", "161126.612500", "161129.112500", "161131.612500", "161134.112500", "161136.612500", "161139.112500", "161141.612500", "161144.112500", "161146.612500", "161149.112500", "161151.612500", "161154.112500", "161156.612500", "161159.112500", "161201.612500", "161204.112500", "161206.612500", "161209.112500", "161211.612500", "161214.112500", "161216.612500", "161219.112500", "161221.612500", "161224.112500", "161226.612500", "161229.112500", "161231.612500", "161234.112500", "161236.612500", "161239.112500", "161241.612500", "161244.112500", "161246.612500", "161249.112500", "161251.612500", "161254.112500", "161256.612500", "161259.112500", "161301.612500", "161304.112500", "161306.612500", "161309.112500", "161311.612500", "161314.112500", "161316.612500", "161319.112500", "161321.612500", "161324.112500", "161326.612500", "161329.112500", "161331.612500", "161334.112500", "161336.612500", "161339.112500", "161341.612500", "161344.112500", "161346.612500", "161349.112500", "161351.612500", "161354.112500", "161356.612500", "161359.112500", "161401.612500", "161404.112500", "161406.612500", "161409.112500", "161411.612500", "161414.112500", "161416.612500", "161419.112500", "161421.612500", "161424.112500", "161426.612500", "161429.112500", "161431.612500", "161434.112500", "161436.612500", "161439.112500", "161441.612500", "161444.112500", "161446.612500", "161449.112500", "161451.612500"],
      "ContentTime": ["160935.906000", "160935.910000", "160935.912000", "160935.915000", "160935.923000", "161035.900000", "161035.903000", "161035.918000", "161035.921000", "161035.923000", "161035.926000", "161035.929000", "161035.932000", "161035.935000", "161035.938000", "161035.940000", "161035.943000", "161035.946000", "161035.948000", "161035.951000", "161035.954000", "161035.958000", "161035.961000", "161035.964000", "161035.967000", "161035.969000", "161035.972000", "161035.975000", "161035.978000", "161135.901000", "161135.903000", "161135.906000", "161135.909000", "161135.911000", "161135.914000", "161135.927000", "161135.930000", "161135.933000", "161135.935000", "161135.938000", "161135.941000", "161135.943000", "161135.946000", "161135.949000", "161135.952000", "161135.955000", "161135.958000", "161135.961000", "161135.964000", "161135.966000", "161135.969000", "161135.972000", "161135.974000", "161235.900000", "161235.902000", "161235.905000", "161235.908000", "161235.911000", "161235.913000", "161235.916000", "161235.919000", "161235.921000", "161235.924000", "161235.927000", "161235.929000", "161235.932000", "161235.934000", "161235.938000", "161235.940000", "161235.943000", "161235.946000", "161235.949000", "161235.952000", "161235.954000", "161235.957000", "161235.960000", "161235.962000", "161335.901000", "161335.904000", "161335.906000", "161335.909000", "161335.912000", "161335.915000", "161335.917000", "161335.920000", "161335.922000", "161335.925000", "161335.928000", "161335.930000", "161335.933000", "161335.936000", "161335.938000", "161335.941000", "161335.945000", "161335.948000", "161335.951000", "161335.954000", "161335.957000", "161335.959000", "161335.962000", "161335.965000", "161435.900000", "161435.903000", "161435.905000", "161435.908000", "161435.911000", "161435.913000", "161435.916000", "161435.919000", "161435.921000", "161435.924000", "161435.927000", "161435.929000", "161435.932000", "161435.935000", "161435.938000", "161435.942000", "161435.945000", "161435.948000", "161435.951000", "161435.954000", "161435.956000", "161435.959000", "161435.962000", "161435.965000", "161453.492000", "161453.495000", "161453.498000", "161453.504000", "161453.506000", "161453.509000", "161453.512000"],
      "InstanceCreationTime": ["160935.906000", "160935.910000", "160935.912000", "160935.915000", "160935.923000", "161035.900000", "161035.903000", "161035.918000", "161035.921000", "161035.923000", "161035.926000", "161035.929000", "161035.932000", "161035.935000", "161035.938000", "161035.940000", "161035.943000", "161035.946000", "161035.948000", "161035.951000", "161035.954000", "161035.958000", "161035.961000", "161035.964000", "161035.967000", "161035.969000", "161035.972000", "161035.975000", "161035.978000", "161135.901000", "161135.903000", "161135.906000", "161135.909000", "161135.911000", "161135.914000", "161135.927000", "161135.930000", "161135.933000", "161135.935000", "161135.938000", "161135.941000", "161135.943000", "161135.946000", "161135.949000", "161135.952000", "161135.955000", "161135.958000", "161135.961000", "161135.964000", "161135.966000", "161135.969000", "161135.972000", "161135.974000", "161235.900000", "161235.902000", "161235.905000", "161235.908000", "161235.911000", "161235.913000", "161235.916000", "161235.919000", "161235.921000", "161235.924000", "161235.927000", "161235.929000", "161235.932000", "161235.934000", "161235.938000", "161235.940000", "161235.943000", "161235.946000", "161235.949000", "161235.952000", "161235.954000", "161235.957000", "161235.960000", "161235.962000", "161335.901000", "161335.904000", "161335.906000", "161335.909000", "161335.912000", "161335.915000", "161335.917000", "161335.920000", "161335.922000", "161335.925000", "161335.928000", "161335.930000", "161335.933000", "161335.936000", "161335.938000", "161335.941000", "161335.945000", "161335.948000", "161335.951000", "161335.954000", "161335.957000", "161335.959000", "161335.962000", "161335.965000", "161435.900000", "161435.903000", "161435.905000", "161435.908000", "161435.911000", "161435.913000", "161435.916000", "161435.919000", "161435.921000", "161435.924000", "161435.927000", "161435.929000", "161435.932000", "161435.935000", "161435.938000", "161435.942000", "161435.945000", "161435.948000", "161435.951000", "161435.954000", "161435.956000", "161435.959000", "161435.962000", "161435.965000", "161453.492000", "161453.495000", "161453.498000", "161453.504000", "161453.506000", "161453.509000", "161453.512000"],
      "InstanceNumber": [1, 2, 3, 4, 5, 6, 7, 8, 9, 10, 11, 12, 13, 14, 15, 16, 17, 18, 19, 20, 21, 22, 23, 24, 25, 26, 27, 28, 29, 30, 31, 32, 33, 34, 35, 36, 37, 38, 39, 40, 41, 42, 43, 44, 45, 46, 47, 48, 49, 50, 51, 52, 53, 54, 55, 56, 57, 58, 59, 60, 61, 62, 63, 64, 65, 66, 67, 68, 69, 70, 71, 72, 73, 74, 75, 76, 77, 78, 79, 80, 81, 82, 83, 84, 85, 86, 87, 88, 89, 90, 91, 92, 93, 94, 95, 96, 97, 98, 99, 100, 101, 102, 103, 104, 105, 106, 107, 108, 109, 110, 111, 112, 113, 114, 115, 116, 117, 118, 119, 120, 121, 122, 123, 124, 125, 126, 127, 128, 129, 130, 131, 132],
      "LargestImagePixelValue": [1652, 1837, 1811, 1702, 1579, 1609, 1801, 1630, 1643, 1695, 1745, 1826, 1592, 1676, 1687, 1761, 1700, 1604, 1571, 1710, 1591, 1661, 1605, 1628, 1668, 1663, 1685, 1584, 1586, 1620, 1671, 1624, 1808, 1644, 1598, 1594, 1597, 1657, 1636, 1730, 1588, 1592, 1591, 1587, 1604, 1669, 1804, 1598, 1684, 1676, 1680, 1583, 1692, 1683, 1727, 1575, 1577, 1594, 1704, 1673, 1627, 1742, 1599, 1600, 1736, 1674, 1713, 1601, 1591, 1684, 1735, 1636, 1746, 1710, 1708, 1646, 1596, 1625, 1620, 1626, 1671, 1698, 1749, 1618, 1674, 1604, 1614, 1709, 1764, 1784, 1655, 1600, 1613, 1629, 1671, 1667, 1734, 1636, 1750, 1734, 1700, 1634, 1762, 1691, 1577, 1605, 1623, 1612, 1622, 1665, 1680, 1734, 1719, 1602, 1751, 1705, 1579, 1613, 1619, 1631, 1712, 1597, 1643, 1753, 1713, 1614, 1601, 1634, 1662, 1703, 1661, 1669],
      "WindowCenter": [657.0, 656.0, 656.0, 655.0, 655.0, 655.0, 657.0, 655.0, 655.0, 656.0, 657.0, 657.0, 655.0, 655.0, 655.0, 656.0, 656.0, 655.0, 655.0, 656.0, 655.0, 655.0, 654.0, 655.0, 656.0, 655.0, 656.0, 654.0, 654.0, 655.0, 655.0, 654.0, 656.0, 655.0, 655.0, 655.0, 654.0, 655.0, 655.0, 656.0, 654.0, 655.0, 654.0, 654.0, 655.0, 655.0, 657.0, 655.0, 655.0, 655.0, 655.0, 654.0, 656.0, 655.0, 655.0, 655.0, 655.0, 655.0, 656.0, 655.0, 653.0, 658.0, 656.0, 655.0, 656.0, 655.0, 655.0, 654.0, 654.0, 655.0, 655.0, 654.0, 655.0, 655.0, 655.0, 654.0, 654.0, 655.0, 655.0, 655.0, 655.0, 655.0, 656.0, 655.0, 655.0, 654.0, 654.0, 655.0, 656.0, 656.0, 655.0, 655.0, 655.0, 655.0, 656.0, 655.0, 655.0, 653.0, 654.0, 655.0, 654.0, 654.0, 655.0, 655.0, 654.0, 655.0, 655.0, 654.0, 654.0, 655.0, 655.0, 655.0, 655.0, 655.0, 656.0, 655.0, 654.0, 655.0, 655.0, 655.0, 656.0, 655.0, 654.0, 655.0, 655.0, 655.0, 655.0, 655.0, 655.0, 655.0, 655.0, 655.0],
      "WindowWidth": [1401.0, 1400.0, 1398.0, 1397.0, 1395.0, 1396.0, 1399.0, 1396.0, 1396.0, 1398.0, 1400.0, 1400.0, 1397.0, 1397.0, 1397.0, 1399.0, 1398.0, 1396.0, 1396.0, 1398.0, 1396.0, 1395.0, 1395.0, 1397.0, 1399.0, 1397.0, 1397.0, 1394.0, 1395.0, 1397.0, 1397.0, 1395.0, 1398.0, 1397.0, 1396.0, 1395.0, 1395.0, 1396.0, 1398.0, 1400.0, 1395.0, 1396.0, 1395.0, 1395.0, 1395.0, 1397.0, 1400.0, 1396.0, 1397.0, 1396.0, 1397.0, 1395.0, 1398.0, 1397.0, 1397.0, 1396.0, 1396.0, 1397.0, 1398.0, 1397.0, 1393.0, 1403.0, 1399.0, 1397.0, 1398.0, 1397.0, 1397.0, 1394.0, 1394.0, 1396.0, 1397.0, 1395.0, 1396.0, 1396.0, 1396.0, 1395.0, 1395.0, 1396.0, 1398.0, 1397.0, 1397.0, 1397.0, 1399.0, 1396.0, 1396.0, 1394.0, 1394.0, 1397.0, 1399.0, 1400.0, 1397.0, 1397.0, 1398.0, 1396.0, 1400.0, 1398.0, 1396.0, 1393.0, 1394.0, 1395.0, 1395.0, 1395.0, 1397.0, 1396.0, 1396.0, 1396.0, 1396.0, 1395.0, 1395.0, 1396.0, 1397.0, 1397.0, 1397.0, 1396.0, 1398.0, 1398.0, 1395.0, 1397.0, 1397.0, 1396.0, 1399.0, 1396.0, 1395.0, 1397.0, 1397.0, 1397.0, 1396.0, 1396.0, 1396.0, 1397.0, 1397.0, 1396.0]
    },
    "slices": {}
  }
}