{
  "AcquisitionMatrixPE": 72,
  "AcquisitionNumber": 1,
  "AcquisitionTime": "16:13:17.832500",
  "BandwidthPerPixelPhaseEncode": 24.366,
  "BaseResolution": 72,
  "BodyPartExamined": "BRAIN",
  "CoilCombinationMethod": "Sum of Squares",
  "ConsistencyInfo": "N4_VE11C_LATEST_20160120",
  "ConversionSoftware": "dcm2niix",
  "ConversionSoftwareVersion": "v1.0.20220720",
  "DerivedVendorReportedEchoSpacing": 0.000570011,
  "DeviceSerialNumber": "45219",
  "DwellTime": 3.5e-06,
  "EchoTime": 0.03,
  "EchoTrainLength": 72,
  "EffectiveEchoSpacing": 0.000570011,
  "FlipAngle": 80,
  "HeudiconvVersion": "1.1.6",
  "ImageOrientationPatientDICOM": [0.999724, -0.0195593, 0.0129866, 0.0174502, 0.989082, 0.146333],
  "ImageOrientationText": "Tra>Cor(8.4)>Sag(0.9)",
  "ImageType": [
    "ORIGINAL",
    "PRIMARY",
    "M",
    "ND",
    "NORM",
    "MOSAIC"
],
  "ImagingFrequency": 123.182,
  "InPlanePhaseEncodingDirectionDICOM": "COL",
  "InstitutionAddress": "First Avenue 660,New York,NYC,US,10016",
  "InstitutionName": "NYU LANGONE CBI",
  "InstitutionalDepartmentName": "Department",
  "MRAcquisitionType": "2D",
  "MagneticFieldStrength": 3,
  "Manufacturer": "Siemens",
  "ManufacturersModelName": "Skyra",
  "MatrixCoilMode": "SENSE",
  "Modality": "MR",
  "NonlinearGradientCorrection": false,
  "PartialFourier": 1,
  "PatientPosition": "HFS",
  "PercentPhaseFOV": 100,
  "PercentSampling": 100,
  "PhaseEncodingDirection": "j-",
  "PhaseEncodingSteps": 72,
  "PhaseResolution": 1,
  "PixelBandwidth": 1985,
  "ProcedureStepDescription": "MRI BRAIN WITHOUT IV CONTRAST",
  "ProtocolName": "REST_2",
  "PulseSequenceDetails": "%SiemensSeq%\\ep2d_bold",
  "ReceiveCoilActiveElements": "HE1-4",
  "ReceiveCoilName": "HeadNeck_20",
  "ReconMatrixPE": 72,
  "RepetitionTime": 2.5,
  "SAR": 0.111255,
  "ScanOptions": "FS",
  "ScanningSequence": "EP",
  "SequenceName": "*epfid2d1_72",
  "SequenceVariant": "SK",
  "SeriesDescription": "REST_2",
  "SeriesNumber": 12,
  "ShimSetting": [-855, -7005, 5029, 181, -160, 287, 357, -221],
  "SliceThickness": 3,
  "SliceTiming": [1.24, 0, 1.305, 0.065, 1.37, 0.13, 1.435, 0.195, 1.5, 0.26, 1.565, 0.325, 1.6325, 0.3925, 1.6975, 0.4575, 1.7625, 0.5225, 1.8275, 0.5875, 1.8925, 0.6525, 1.9575, 0.7175, 2.0225, 0.7825, 2.0875, 0.8475, 2.1525, 0.9125, 2.2175, 0.9775, 2.285, 1.045, 2.35, 1.11, 2.415, 1.175],
  "SoftwareVersions": "syngo MR E11",
  "SpacingBetweenSlices": 3,
  "StationName": "MRC45219",
  "TaskName": "rest",
  "TotalReadoutTime": 0.0404708,
  "TxRefAmp": 409.473,
  "dcmmeta_affine": [
    [-2.999173164367676, 0.052350714802742004, 0.04712079465389252, 105.2658920288086],
    [0.0586780346930027, 2.9672443866729736, 0.43819761276245117, -120.70707702636719],
    [0.038959652185440063, -0.4389984607696533, 2.9674506187438965, -30.46245574951172],
    [0.0, 0.0, 0.0, 1.0]
],
  "dcmmeta_reorient_transform": [
    [0.0, -1.0, 0.0, 71.0],
    [1.0, 0.0, 0.0, 0.0],
    [0.0, 0.0, 1.0, 0.0],
    [0.0, 0.0, 0.0, 1.0]
],
  "dcmmeta_shape": [72, 72, 38, 122],
  "dcmmeta_slice_dim": 2,
  "dcmmeta_version": 0.6,
  "global": {
    "const": {
      "AccessionNumber": "REMOVED",
      "AcquisitionMatrix": [72, 0, 0, 72],
      "AngioFlag": "N",
      "BitsAllocated": 16,
      "BitsStored": 12,
      "BodyPartExamined": "BRAIN",
      "Columns": 504,
      "CountryOfResidence": "REMOVED",
      "DeidentificationMethod": "anonymize.default",
      "DeidentificationMethodCodeSequence": [
        {
          "CodeMeaning": "Basic Anonymization",
          "CodeValue": "113199",
          "CodingSchemeDesignator": "2012CDX"
        }
],
      "EchoNumbers": 1,
      "EchoTime": 30.0,
      "EchoTrainLength": 72,
      "FlipAngle": 80.0,
      "HighBit": 11,
      "ImageOrientationPatient": [0.99972435276578, -0.0195593454338, 0.01298655047489, 0.01745023813633, 0.98908149096998, 0.14633281726799],
      "ImagePositionPatient": [-768.1119307211, -718.21763122368, -164.87029629218],
      "ImageType": [
        "ORIGINAL",
        "PRIMARY",
        "M",
        "ND",
        "NORM",
        "MOSAIC"
],
      "ImagedNucleus": "1H",
      "ImagingFrequency": 123.182179,
      "InPlanePhaseEncodingDirection": "COL",
      "MRAcquisitionType": "2D",
      "MagneticFieldStrength": 3.0,
      "Manufacturer": "SIEMENS",
      "ManufacturerModelName": "Skyra",
      "Modality": "MR",
      "NumberOfAverages": 1.0,
      "NumberOfPhaseEncodingSteps": 72,
      "PercentPhaseFieldOfView": 100.0,
      "PercentSampling": 100.0,
      "PerformedProcedureStepStartTime": "154639.913000",
      "PhotometricInterpretation": "MONOCHROME2",
      "PixelBandwidth": 1985.0,
      "PixelRepresentation": 0,
      "PixelSpacing": [3.0, 3.0],
      "PregnancyStatus": 0,
      "ProcedureCodeSequence": [
        {
          "CodeMeaning": "MRI BRAIN WITHOUT IV CONTRAST",
          "CodeValue": "IMG269",
          "CodingSchemeDesignator": "L"
        }
],
      "ProtocolName": "REST_2",
      "RepetitionTime": 2500.0,
      "RequestAttributesSequence": [
        {
          "RequestedProcedureID": "306547939",
          "ScheduledProcedureStepDescription": "MRI BRAIN WITHOUT IV CONTRAST",
          "ScheduledProcedureStepID": "E9367607",
          "ScheduledProtocolCodeSequence": [
            {
              "CodeMeaning": "MRI BRAIN WITHOUT IV CONTRAST",
              "CodeValue": "651061",
              "CodingSchemeDesignator": "L"
            }
]
        }
],
      "RequestedProcedureCodeSequence": [
        {
          "CodeMeaning": "MRI BRAIN WITHOUT IV CONTRAST",
          "CodeValue": "IMG269",
          "CodingSchemeDesignator": "L"
        }
],
      "Rows": 504,
      "SAR": 0.11125497791324,
      "SamplesPerPixel": 1,
      "ScanOptions": "FS",
      "ScanningSequence": "EP",
      "SequenceName": "*epfid2d1_72",
      "SequenceVariant": "SK",
      "SeriesDescription": "REST_2",
      "SeriesNumber": 12,
      "SeriesTime": "161408.943000",
      "SliceLocation": -46.109722552459,
      "SliceThickness": 3.0,
      "SmallestImagePixelValue": 0,
      "SmokingStatus": "REMOVED",
      "SoftwareVersions": "syngo MR E11",
      "SpacingBetweenSlices": 3.0000001220631,
      "SpecificCharacterSet": "ISO_IR 100",
      "StudyID": "REMOVED",
      "StudyTime": "154639.758000",
      "TransmitCoilName": "Body",
      "VariableFlipAngleFlag": "N",
      "WindowCenterWidthExplanation": "Algo1",
      "dBdt": 0.0},
    "slices": {}
  },
  "time": {
    "samples": {
      "AcquisitionNumber": [1, 2, 3, 4, 5, 6, 7, 8, 9, 10, 11, 12, 13, 14, 15, 16, 17, 18, 19, 20, 21, 22, 23, 24, 25, 26, 27, 28, 29, 30, 31, 32, 33, 34, 35, 36, 37, 38, 39, 40, 41, 42, 43, 44, 45, 46, 47, 48, 49, 50, 51, 52, 53, 54, 55, 56, 57, 58, 59, 60, 61, 62, 63, 64, 65, 66, 67, 68, 69, 70, 71, 72, 73, 74, 75, 76, 77, 78, 79, 80, 81, 82, 83, 84, 85, 86, 87, 88, 89, 90, 91, 92, 93, 94, 95, 96, 97, 98, 99, 100, 101, 102, 103, 104, 105, 106, 107, 108, 109, 110, 111, 112, 113, 114, 115, 116, 117, 118, 119, 120, 121, 122],
      "AcquisitionTime": ["161317.832500", "161320.332500", "161322.832500", "161325.332500", "161327.832500", "161330.332500", "161332.832500", "161335.332500", "161337.832500", "161340.332500", "161342.832500", "161345.332500", "161347.832500", "161350.332500", "161352.832500", "161355.332500", "161357.832500", "161400.332500", "161402.832500", "161405.332500", "161407.832500", "161410.332500", "161412.832500", "161415.332500", "161417.832500", "161420.332500", "161422.832500", "161425.332500", "161427.832500", "161430.332500", "161432.832500", "161435.332500", "161437.832500", "161440.332500", "161442.832500", "161445.332500", "161447.832500", "161450.332500", "161452.832500", "161455.332500", "161457.832500", "161500.332500", "161502.832500", "161505.332500", "161507.832500", "161510.332500", "161512.832500", "161515.332500", "161517.832500", "161520.332500", "161522.832500", "161525.332500", "161527.832500", "161530.332500", "161532.832500", "161535.332500", "161537.832500", "161540.332500", "161542.832500", "161545.332500", "161547.832500", "161550.332500", "161552.832500", "161555.332500", "161557.832500", "161600.332500", "161602.832500", "161605.332500", "161607.832500", "161610.332500", "161612.832500", "161615.332500", "161617.832500", "161620.332500", "161622.832500", "161625.332500", "161627.832500", "161630.332500", "161632.832500", "161635.332500", "161637.832500", "161640.332500", "161642.832500", "161645.332500", "161647.832500", "161650.332500", "161652.832500", "161655.332500", "161657.832500", "161700.332500", "161702.832500", "161705.332500", "161707.832500", "161710.332500", "161712.832500", "161715.332500", "161717.832500", "161720.332500", "161722.832500", "161725.332500", "161727.832500", "161730.332500", "161732.832500", "161735.332500", "161737.832500", "161740.332500", "161742.832500", "161745.332500", "161747.832500", "161750.332500", "161752.832500", "161755.332500", "161757.832500", "161800.332500", "161802.832500", "161805.332500", "161807.832500", "161810.332500", "161812.832500", "161815.332500", "161817.832500", "161820.332500"],
      "ContentTime": ["161408.947000", "161408.950000", "161408.953000", "161408.955000", "161408.958000", "161408.961000", "161408.963000", "161408.966000", "161408.968000", "161408.979000", "161408.981000", "161408.984000", "161408.987000", "161408.989000", "161408.992000", "161408.994000", "161408.997000", "161409.000000", "161409.002000", "161409.005000", "161508.941000", "161508.943000", "161508.946000", "161508.949000", "161508.951000", "161508.954000", "161508.957000", "161508.959000", "161508.962000", "161508.964000", "161508.967000", "161508.969000", "161508.972000", "161508.975000", "161508.977000", "161508.980000", "161508.982000", "161508.985000", "161508.988000", "161508.990000", "161508.993000", "161508.995000", "161508.998000", "161509.002000", "161608.941000", "161608.944000", "161608.965000", "161608.967000", "161608.970000", "161608.972000", "161608.975000", "161608.978000", "161608.980000", "161608.983000", "161608.985000", "161608.988000", "161608.991000", "161608.993000", "161608.996000", "161608.998000", "161609.002000", "161609.004000", "161609.007000", "161609.010000", "161609.012000", "161609.015000", "161609.018000", "161609.020000", "161708.942000", "161708.944000", "161708.947000", "161708.950000", "161708.952000", "161708.955000", "161708.964000", "161708.966000", "161708.969000", "161708.972000", "161708.974000", "161708.977000", "161708.980000", "161708.982000", "161708.985000", "161708.988000", "161708.990000", "161708.993000", "161708.995000", "161708.998000", "161709.002000", "161709.004000", "161709.014000", "161709.016000", "161728.941000", "161728.943000", "161728.946000", "161728.949000", "161728.951000", "161728.954000", "161728.957000", "161728.959000", "161822.605000", "161822.607000", "161822.619000", "161822.622000", "161822.625000", "161822.627000", "161822.630000", "161822.633000", "161822.635000", "161822.641000", "161822.645000", "161822.649000", "161822.652000", "161822.655000", "161822.658000", "161822.662000", "161822.665000", "161822.668000", "161822.671000", "161822.674000", "161822.676000", "161822.679000"],
      "InstanceCreationTime": ["161408.947000", "161408.950000", "161408.953000", "161408.955000", "161408.958000", "161408.961000", "161408.963000", "161408.966000", "161408.968000", "161408.979000", "161408.981000", "161408.984000", "161408.987000", "161408.989000", "161408.992000", "161408.994000", "161408.997000", "161409.000000", "161409.002000", "161409.005000", "161508.941000", "161508.943000", "161508.946000", "161508.949000", "161508.951000", "161508.954000", "161508.957000", "161508.959000", "161508.962000", "161508.964000", "161508.967000", "161508.969000", "161508.972000", "161508.975000", "161508.977000", "161508.980000", "161508.982000", "161508.985000", "161508.988000", "161508.990000", "161508.993000", "161508.995000", "161508.998000", "161509.002000", "161608.941000", "161608.944000", "161608.965000", "161608.967000", "161608.970000", "161608.972000", "161608.975000", "161608.978000", "161608.980000", "161608.983000", "161608.985000", "161608.988000", "161608.991000", "161608.993000", "161608.996000", "161608.998000", "161609.002000", "161609.004000", "161609.007000", "161609.010000", "161609.012000", "161609.015000", "161609.018000", "161609.020000", "161708.942000", "161708.944000", "161708.947000", "161708.950000", "161708.952000", "161708.955000", "161708.964000", "161708.966000", "161708.969000", "161708.972000", "161708.974000", "161708.977000", "161708.980000", "161708.982000", "161708.985000", "161708.988000", "161708.990000", "161708.993000", "161708.995000", "161708.998000", "161709.002000", "161709.004000", "161709.014000", "161709.016000", "161728.941000", "161728.943000", "161728.946000", "161728.949000", "161728.951000", "161728.954000", "161728.957000", "161728.959000", "161822.605000", "161822.607000", "161822.619000", "161822.622000", "161822.625000", "161822.627000", "161822.630000", "161822.633000", "161822.635000", "161822.641000", "161822.645000", "161822.649000", "161822.652000", "161822.655000", "161822.658000", "161822.662000", "161822.665000", "161822.668000", "161822.671000", "161822.674000", "161822.676000", "161822.679000"],
      "InstanceNumber": [1, 2, 3, 4, 5, 6, 7, 8, 9, 10, 11, 12, 13, 14, 15, 16, 17, 18, 19, 20, 21, 22, 23, 24, 25, 26, 27, 28, 29, 30, 31, 32, 33, 34, 35, 36, 37, 38, 39, 40, 41, 42, 43, 44, 45, 46, 47, 48, 49, 50, 51, 52, 53, 54, 55, 56, 57, 58, 59, 60, 61, 62, 63, 64, 65, 66, 67, 68, 69, 70, 71, 72, 73, 74, 75, 76, 77, 78, 79, 80, 81, 82, 83, 84, 85, 86, 87, 88, 89, 90, 91, 92, 93, 94, 95, 96, 97, 98, 99, 100, 101, 102, 103, 104, 105, 106, 107, 108, 109, 110, 111, 112, 113, 114, 115, 116, 117, 118, 119, 120, 121, 122],
      "LargestImagePixelValue": [1620, 1660, 1593, 1545, 1759, 1539, 1723, 1529, 1525, 1664, 1517, 1519, 1818, 1527, 1532, 1790, 1640, 1537, 1538, 1534, 1913, 1608, 1531, 1538, 1551, 1602, 1586, 1821, 1529, 1540, 1562, 1534, 1890, 1542, 1585, 1547, 1845, 1538, 1546, 1572, 1579, 1562, 1770, 1931, 1566, 1531, 1587, 1534, 1700, 2021, 1530, 1544, 1541, 1878, 1559, 1562, 1530, 1954, 1521, 1551, 1528, 1891, 1534, 1534, 1579, 1538, 1965, 1575, 1554, 1532, 1913, 1526, 1584, 1824, 1599, 1530, 1572, 1537, 1785, 1717, 1538, 1602, 1875, 1541, 1548, 1691, 1803, 1551, 1532, 2016, 1536, 1588, 1663, 1833, 1521, 1560, 1857, 1703, 1537, 1528, 1584, 1748, 1982, 1606, 1520, 1573, 1516, 1891, 1850, 1521, 1520, 1975, 1527, 1567, 1798, 1698, 1554, 1552, 2003, 1644, 1560, 1686],
      "WindowCenter": [634.0, 633.0, 633.0, 632.0, 633.0, 632.0, 634.0, 632.0, 633.0, 634.0, 634.0, 634.0, 636.0, 633.0, 634.0, 635.0, 634.0, 633.0, 633.0, 633.0, 636.0, 634.0, 633.0, 633.0, 633.0, 634.0, 633.0, 635.0, 633.0, 633.0, 633.0, 633.0, 636.0, 633.0, 633.0, 633.0, 636.0, 633.0, 633.0, 633.0, 634.0, 633.0, 635.0, 636.0, 633.0, 632.0, 633.0, 633.0, 634.0, 635.0, 632.0, 632.0, 632.0, 634.0, 632.0, 632.0, 632.0, 635.0, 632.0, 633.0, 633.0, 636.0, 633.0, 633.0, 634.0, 633.0, 635.0, 633.0, 633.0, 633.0, 635.0, 632.0, 632.0, 634.0, 633.0, 632.0, 633.0, 632.0, 634.0, 634.0, 633.0, 633.0, 635.0, 632.0, 632.0, 634.0, 634.0, 633.0, 632.0, 636.0, 632.0, 633.0, 633.0, 634.0, 632.0, 632.0, 634.0, 633.0, 632.0, 632.0, 633.0, 634.0, 635.0, 632.0, 632.0, 632.0, 632.0, 635.0, 634.0, 632.0, 632.0, 635.0, 632.0, 632.0, 634.0, 633.0, 633.0, 633.0, 635.0, 633.0, 633.0, 634.0],
      "WindowWidth": [1345.0, 1342.0, 1341.0, 1340.0, 1342.0, 1339.0, 1343.0, 1341.0, 1342.0, 1345.0, 1344.0, 1344.0, 1348.0, 1343.0, 1343.0, 1346.0, 1344.0, 1343.0, 1343.0, 1343.0, 1348.0, 1343.0, 1343.0, 1342.0, 1343.0, 1343.0, 1343.0, 1346.0, 1342.0, 1343.0, 1342.0, 1342.0, 1348.0, 1342.0, 1343.0, 1343.0, 1347.0, 1343.0, 1343.0, 1343.0, 1344.0, 1343.0, 1345.0, 1347.0, 1341.0, 1340.0, 1343.0, 1342.0, 1343.0, 1347.0, 1340.0, 1340.0, 1340.0, 1344.0, 1339.0, 1340.0, 1340.0, 1346.0, 1341.0, 1342.0, 1341.0, 1347.0, 1341.0, 1341.0, 1343.0, 1342.0, 1347.0, 1342.0, 1342.0, 1341.0, 1346.0, 1339.0, 1340.0, 1343.0, 1342.0, 1341.0, 1342.0, 1341.0, 1345.0, 1345.0, 1342.0, 1342.0, 1345.0, 1340.0, 1341.0, 1343.0, 1344.0, 1341.0, 1340.0, 1347.0, 1341.0, 1342.0, 1342.0, 1344.0, 1339.0, 1340.0, 1344.0, 1342.0, 1339.0, 1340.0, 1342.0, 1345.0, 1346.0, 1340.0, 1339.0, 1340.0, 1340.0, 1345.0, 1343.0, 1339.0, 1339.0, 1346.0, 1341.0, 1341.0, 1344.0, 1342.0, 1341.0, 1341.0, 1345.0, 1342.0, 1342.0, 1344.0]
    },
    "slices": {}
  }
}