{
  "AcquisitionMatrixPE": 72,
  "AcquisitionNumber": 1,
  "AcquisitionTime": "16:01:35.250000",
  "BandwidthPerPixelPhaseEncode": 24.366,
  "BaseResolution": 72,
  "BodyPartExamined": "BRAIN",
  "CoilCombinationMethod": "Sum of Squares",
  "ConsistencyInfo": "N4_VE11C_LATEST_20160120",
  "ConversionSoftware": "dcm2niix",
  "ConversionSoftwareVersion": "v1.0.20220720",
  "DerivedVendorReportedEchoSpacing": 0.000570011,
  "DeviceSerialNumber": "45219",
  "DwellTime": 3.5e-06,
  "EchoTime": 0.03,
  "EchoTrainLength": 72,
  "EffectiveEchoSpacing": 0.000570011,
  "FlipAngle": 80,
  "HeudiconvVersion": "1.1.6",
  "ImageOrientationPatientDICOM": [0.999724, -0.0195593, 0.0129866, 0.0174502, 0.989082, 0.146333],
  "ImageOrientationText": "Tra>Cor(8.4)>Sag(0.9)",
  "ImageType": [
    "ORIGINAL",
    "PRIMARY",
    "M",
    "ND",
    "NORM",
    "MOSAIC"
],
  "ImagingFrequency": 123.182,
  "InPlanePhaseEncodingDirectionDICOM": "COL",
  "InstitutionAddress": "First Avenue 660,New York,NYC,US,10016",
  "InstitutionName": "NYU LANGONE CBI",
  "InstitutionalDepartmentName": "Department",
  "MRAcquisitionType": "2D",
  "MagneticFieldStrength": 3,
  "Manufacturer": "Siemens",
  "ManufacturersModelName": "Skyra",
  "MatrixCoilMode": "SENSE",
  "Modality": "MR",
  "NonlinearGradientCorrection": false,
  "PartialFourier": 1,
  "PatientPosition": "HFS",
  "PercentPhaseFOV": 100,
  "PercentSampling": 100,
  "PhaseEncodingDirection": "j-",
  "PhaseEncodingSteps": 72,
  "PhaseResolution": 1,
  "PixelBandwidth": 1985,
  "ProcedureStepDescription": "MRI BRAIN WITHOUT IV CONTRAST",
  "ProtocolName": "TASK_CD",
  "PulseSequenceDetails": "%SiemensSeq%\\ep2d_bold",
  "ReceiveCoilActiveElements": "HE1-4",
  "ReceiveCoilName": "HeadNeck_20",
  "ReconMatrixPE": 72,
  "RepetitionTime": 2.5,
  "SAR": 0.111295,
  "ScanOptions": "FS",
  "ScanningSequence": "EP",
  "SequenceName": "*epfid2d1_72",
  "SequenceVariant": "SK",
  "SeriesDescription": "TASK_CD",
  "SeriesNumber": 8,
  "ShimSetting": [-855, -7005, 5029, 181, -160, 287, 357, -221],
  "SliceThickness": 3,
  "SliceTiming": [1.24, 0, 1.305, 0.065, 1.37, 0.13, 1.4375, 0.1975, 1.5025, 0.2625, 1.5675, 0.3275, 1.6325, 0.3925, 1.6975, 0.4575, 1.7625, 0.5225, 1.8275, 0.5875, 1.8925, 0.6525, 1.9575, 0.7175, 2.0225, 0.7825, 2.09, 0.85, 2.155, 0.915, 2.22, 0.98, 2.285, 1.045, 2.35, 1.11, 2.415, 1.175],
  "SoftwareVersions": "syngo MR E11",
  "SpacingBetweenSlices": 3,
  "StationName": "MRC45219",
  "TaskName": "cd",
  "TotalReadoutTime": 0.0404708,
  "TxRefAmp": 409.473,
  "dcmmeta_affine": [
    [-2.999173164367676, 0.052350714802742004, 0.04712079465389252, 105.2658920288086],
    [0.0586780346930027, 2.9672443866729736, 0.43819761276245117, -120.70707702636719],
    [0.038959652185440063, -0.4389984607696533, 2.9674506187438965, -30.46245574951172],
    [0.0, 0.0, 0.0, 1.0]
],
  "dcmmeta_reorient_transform": [
    [0.0, -1.0, 0.0, 71.0],
    [1.0, 0.0, 0.0, 0.0],
    [0.0, 0.0, 1.0, 0.0],
    [0.0, 0.0, 0.0, 1.0]
],
  "dcmmeta_shape": [72, 72, 38, 132],
  "dcmmeta_slice_dim": 2,
  "dcmmeta_version": 0.6,
  "global": {
    "const": {
      "AccessionNumber": "REMOVED",
      "AcquisitionMatrix": [72, 0, 0, 72],
      "AngioFlag": "N",
      "BitsAllocated": 16,
      "BitsStored": 12,
      "BodyPartExamined": "BRAIN",
      "Columns": 504,
      "CountryOfResidence": "REMOVED",
      "DeidentificationMethod": "anonymize.default",
      "DeidentificationMethodCodeSequence": [
        {
          "CodeMeaning": "Basic Anonymization",
          "CodeValue": "113199",
          "CodingSchemeDesignator": "2012CDX"
        }
],
      "EchoNumbers": 1,
      "EchoTime": 30.0,
      "EchoTrainLength": 72,
      "FlipAngle": 80.0,
      "HighBit": 11,
      "ImageOrientationPatient": [0.99972435276578, -0.0195593454338, 0.01298655047489, 0.01745023813633, 0.98908149096998, 0.14633281726799],
      "ImagePositionPatient": [-768.1119307211, -718.21763122368, -164.87029629218],
      "ImageType": [
        "ORIGINAL",
        "PRIMARY",
        "M",
        "ND",
        "NORM",
        "MOSAIC"
],
      "ImagedNucleus": "1H",
      "ImagingFrequency": 123.182113,
      "InPlanePhaseEncodingDirection": "COL",
      "MRAcquisitionType": "2D",
      "MagneticFieldStrength": 3.0,
      "Manufacturer": "SIEMENS",
      "ManufacturerModelName": "Skyra",
      "Modality": "MR",
      "NumberOfAverages": 1.0,
      "NumberOfPhaseEncodingSteps": 72,
      "PercentPhaseFieldOfView": 100.0,
      "PercentSampling": 100.0,
      "PerformedProcedureStepStartTime": "154639.913000",
      "PhotometricInterpretation": "MONOCHROME2",
      "PixelBandwidth": 1985.0,
      "PixelRepresentation": 0,
      "PixelSpacing": [3.0, 3.0],
      "PregnancyStatus": 0,
      "ProcedureCodeSequence": [
        {
          "CodeMeaning": "MRI BRAIN WITHOUT IV CONTRAST",
          "CodeValue": "IMG269",
          "CodingSchemeDesignator": "L"
        }
],
      "ProtocolName": "TASK_CD",
      "RepetitionTime": 2500.0,
      "RequestAttributesSequence": [
        {
          "RequestedProcedureID": "306547939",
          "ScheduledProcedureStepDescription": "MRI BRAIN WITHOUT IV CONTRAST",
          "ScheduledProcedureStepID": "E9367607",
          "ScheduledProtocolCodeSequence": [
            {
              "CodeMeaning": "MRI BRAIN WITHOUT IV CONTRAST",
              "CodeValue": "651061",
              "CodingSchemeDesignator": "L"
            }
]
        }
],
      "RequestedProcedureCodeSequence": [
        {
          "CodeMeaning": "MRI BRAIN WITHOUT IV CONTRAST",
          "CodeValue": "IMG269",
          "CodingSchemeDesignator": "L"
        }
],
      "Rows": 504,
      "SAR": 0.11129497028876,
      "SamplesPerPixel": 1,
      "ScanOptions": "FS",
      "ScanningSequence": "EP",
      "SequenceName": "*epfid2d1_72",
      "SequenceVariant": "SK",
      "SeriesDescription": "TASK_CD",
      "SeriesNumber": 8,
      "SeriesTime": "160240.440000",
      "SliceLocation": -46.109722552459,
      "SliceThickness": 3.0,
      "SmallestImagePixelValue": 0,
      "SmokingStatus": "REMOVED",
      "SoftwareVersions": "syngo MR E11",
      "SpacingBetweenSlices": 3.0000001220631,
      "SpecificCharacterSet": "ISO_IR 100",
      "StudyID": "REMOVED",
      "StudyTime": "154639.758000",
      "TransmitCoilName": "Body",
      "VariableFlipAngleFlag": "N",
      "WindowCenterWidthExplanation": "Algo1",
      "dBdt": 0.0},
    "slices": {}
  },
  "time": {
    "samples": {
      "AcquisitionNumber": [1, 2, 3, 4, 5, 6, 7, 8, 9, 10, 11, 12, 13, 14, 15, 16, 17, 18, 19, 20, 21, 22, 23, 24, 25, 26, 27, 28, 29, 30, 31, 32, 33, 34, 35, 36, 37, 38, 39, 40, 41, 42, 43, 44, 45, 46, 47, 48, 49, 50, 51, 52, 53, 54, 55, 56, 57, 58, 59, 60, 61, 62, 63, 64, 65, 66, 67, 68, 69, 70, 71, 72, 73, 74, 75, 76, 77, 78, 79, 80, 81, 82, 83, 84, 85, 86, 87, 88, 89, 90, 91, 92, 93, 94, 95, 96, 97, 98, 99, 100, 101, 102, 103, 104, 105, 106, 107, 108, 109, 110, 111, 112, 113, 114, 115, 116, 117, 118, 119, 120, 121, 122, 123, 124, 125, 126, 127, 128, 129, 130, 131, 132],
      "AcquisitionTime": ["160135.250000", "160137.750000", "160140.250000", "160142.750000", "160145.250000", "160147.750000", "160150.250000", "160152.750000", "160155.250000", "160157.750000", "160200.250000", "160202.750000", "160205.250000", "160207.750000", "160210.250000", "160212.750000", "160215.250000", "160217.750000", "160220.250000", "160222.750000", "160225.250000", "160227.750000", "160230.250000", "160232.750000", "160235.250000", "160237.750000", "160240.250000", "160242.750000", "160245.250000", "160247.750000", "160250.250000", "160252.750000", "160255.250000", "160257.750000", "160300.250000", "160302.750000", "160305.250000", "160307.750000", "160310.250000", "160312.750000", "160315.250000", "160317.750000", "160320.250000", "160322.750000", "160325.250000", "160327.750000", "160330.250000", "160332.750000", "160335.250000", "160337.750000", "160340.250000", "160342.750000", "160345.250000", "160347.750000", "160350.250000", "160352.750000", "160355.250000", "160357.750000", "160400.250000", "160402.750000", "160405.250000", "160407.750000", "160410.250000", "160412.750000", "160415.250000", "160417.750000", "160420.250000", "160422.750000", "160425.250000", "160427.750000", "160430.250000", "160432.750000", "160435.250000", "160437.750000", "160440.250000", "160442.750000", "160445.250000", "160447.750000", "160450.250000", "160452.750000", "160455.250000", "160457.750000", "160500.250000", "160502.750000", "160505.250000", "160507.750000", "160510.250000", "160512.750000", "160515.250000", "160517.750000", "160520.250000", "160522.750000", "160525.250000", "160527.750000", "160530.250000", "160532.750000", "160535.250000", "160537.750000", "160540.250000", "160542.750000", "160545.250000", "160547.750000", "160550.250000", "160552.750000", "160555.250000", "160557.750000", "160600.250000", "160602.750000", "160605.250000", "160607.750000", "160610.250000", "160612.750000", "160615.250000", "160617.750000", "160620.250000", "160622.750000", "160625.250000", "160627.750000", "160630.250000", "160632.750000", "160635.250000", "160637.750000", "160640.250000", "160642.750000", "160645.250000", "160647.750000", "160650.250000", "160652.750000", "160655.250000", "160657.750000", "160700.250000", "160702.750000"],
      "ContentTime": ["160240.444000", "160240.447000", "160240.450000", "160240.453000", "160240.455000", "160240.458000", "160240.460000", "160240.463000", "160240.466000", "160240.468000", "160240.471000", "160240.474000", "160240.476000", "160240.479000", "160240.481000", "160240.484000", "160240.487000", "160240.489000", "160240.492000", "160240.495000", "160240.497000", "160240.500000", "160240.502000", "160240.505000", "160240.507000", "160240.510000", "160340.438000", "160340.442000", "160340.452000", "160340.455000", "160340.458000", "160340.460000", "160340.463000", "160340.465000", "160340.468000", "160340.471000", "160340.473000", "160340.476000", "160340.478000", "160340.481000", "160340.484000", "160340.486000", "160340.489000", "160340.491000", "160340.494000", "160340.497000", "160340.499000", "160340.502000", "160340.504000", "160340.513000", "160440.438000", "160440.442000", "160440.444000", "160440.447000", "160440.449000", "160440.452000", "160440.455000", "160440.457000", "160440.460000", "160440.463000", "160440.465000", "160440.468000", "160440.470000", "160440.473000", "160440.476000", "160440.478000", "160440.481000", "160440.484000", "160440.486000", "160440.489000", "160440.491000", "160440.494000", "160440.497000", "160440.499000", "160540.440000", "160540.443000", "160540.445000", "160540.448000", "160540.450000", "160540.453000", "160540.456000", "160540.458000", "160540.461000", "160540.464000", "160540.466000", "160540.469000", "160540.471000", "160540.474000", "160540.477000", "160540.479000", "160540.482000", "160540.485000", "160540.487000", "160540.490000", "160540.492000", "160540.495000", "160540.498000", "160540.500000", "160620.439000", "160620.442000", "160620.444000", "160620.447000", "160620.449000", "160620.452000", "160620.455000", "160620.457000", "160620.460000", "160620.463000", "160620.465000", "160620.468000", "160620.471000", "160620.473000", "160620.476000", "160620.479000", "160704.310000", "160704.313000", "160704.316000", "160704.318000", "160704.321000", "160704.324000", "160704.326000", "160704.329000", "160704.331000", "160704.334000", "160704.337000", "160704.339000", "160704.347000", "160704.352000", "160704.355000", "160704.358000", "160704.362000", "160704.369000"],
      "InstanceCreationTime": ["160240.444000", "160240.447000", "160240.450000", "160240.453000", "160240.455000", "160240.458000", "160240.460000", "160240.463000", "160240.466000", "160240.468000", "160240.471000", "160240.474000", "160240.476000", "160240.479000", "160240.481000", "160240.484000", "160240.487000", "160240.489000", "160240.492000", "160240.495000", "160240.497000", "160240.500000", "160240.502000", "160240.505000", "160240.507000", "160240.510000", "160340.438000", "160340.442000", "160340.452000", "160340.455000", "160340.458000", "160340.460000", "160340.463000", "160340.465000", "160340.468000", "160340.471000", "160340.473000", "160340.476000", "160340.478000", "160340.481000", "160340.484000", "160340.486000", "160340.489000", "160340.491000", "160340.494000", "160340.497000", "160340.499000", "160340.502000", "160340.504000", "160340.513000", "160440.438000", "160440.442000", "160440.444000", "160440.447000", "160440.449000", "160440.452000", "160440.455000", "160440.457000", "160440.460000", "160440.463000", "160440.465000", "160440.468000", "160440.470000", "160440.473000", "160440.476000", "160440.478000", "160440.481000", "160440.484000", "160440.486000", "160440.489000", "160440.491000", "160440.494000", "160440.497000", "160440.499000", "160540.440000", "160540.443000", "160540.445000", "160540.448000", "160540.450000", "160540.453000", "160540.456000", "160540.458000", "160540.461000", "160540.464000", "160540.466000", "160540.469000", "160540.471000", "160540.474000", "160540.477000", "160540.479000", "160540.482000", "160540.485000", "160540.487000", "160540.490000", "160540.492000", "160540.495000", "160540.498000", "160540.500000", "160620.439000", "160620.442000", "160620.444000", "160620.447000", "160620.449000", "160620.452000", "160620.455000", "160620.457000", "160620.460000", "160620.463000", "160620.465000", "160620.468000", "160620.471000", "160620.473000", "160620.476000", "160620.479000", "160704.310000", "160704.313000", "160704.316000", "160704.318000", "160704.321000", "160704.324000", "160704.326000", "160704.329000", "160704.331000", "160704.334000", "160704.337000", "160704.339000", "160704.347000", "160704.352000", "160704.355000", "160704.358000", "160704.362000", "160704.369000"],
      "InstanceNumber": [1, 2, 3, 4, 5, 6, 7, 8, 9, 10, 11, 12, 13, 14, 15, 16, 17, 18, 19, 20, 21, 22, 23, 24, 25, 26, 27, 28, 29, 30, 31, 32, 33, 34, 35, 36, 37, 38, 39, 40, 41, 42, 43, 44, 45, 46, 47, 48, 49, 50, 51, 52, 53, 54, 55, 56, 57, 58, 59, 60, 61, 62, 63, 64, 65, 66, 67, 68, 69, 70, 71, 72, 73, 74, 75, 76, 77, 78, 79, 80, 81, 82, 83, 84, 85, 86, 87, 88, 89, 90, 91, 92, 93, 94, 95, 96, 97, 98, 99, 100, 101, 102, 103, 104, 105, 106, 107, 108, 109, 110, 111, 112, 113, 114, 115, 116, 117, 118, 119, 120, 121, 122, 123, 124, 125, 126, 127, 128, 129, 130, 131, 132],
      "LargestImagePixelValue": [1875, 1886, 1511, 1515, 1931, 1578, 1510, 1945, 1505, 1834, 1541, 1850, 1543, 1893, 1515, 1869, 1526, 1541, 1529, 1535, 1817, 1598, 1518, 1765, 1525, 1654, 1518, 1644, 1518, 1536, 1522, 1805, 1507, 1741, 1527, 1873, 1520, 1517, 1897, 1520, 1821, 1498, 1535, 1651, 1511, 1934, 1503, 1538, 1704, 1495, 1954, 1528, 1511, 1745, 1542, 1525, 2012, 1508, 1648, 1745, 1517, 1638, 1529, 1598, 1765, 1577, 1498, 1829, 1517, 1512, 1889, 1514, 1500, 1519, 1825, 1518, 1543, 1541, 1925, 1521, 1510, 1828, 1517, 1519, 1538, 1739, 1535, 1690, 1525, 1521, 1529, 1839, 1522, 1529, 1525, 1801, 1529, 1539, 1535, 1794, 1650, 1570, 1537, 1602, 1524, 1561, 1549, 1756, 1533, 1562, 1687, 1528, 1541, 1614, 1552, 1564, 1734, 1519, 1532, 1602, 1531, 1640, 1538, 1558, 1755, 1518, 1535, 1520, 1575, 1541, 1752, 1520],
      "WindowCenter": [637.0, 636.0, 633.0, 633.0, 636.0, 633.0, 633.0, 635.0, 632.0, 636.0, 634.0, 637.0, 635.0, 637.0, 634.0, 636.0, 634.0, 635.0, 635.0, 636.0, 637.0, 635.0, 635.0, 636.0, 634.0, 635.0, 633.0, 635.0, 633.0, 634.0, 634.0, 636.0, 634.0, 636.0, 634.0, 637.0, 634.0, 634.0, 637.0, 634.0, 636.0, 633.0, 633.0, 635.0, 634.0, 636.0, 633.0, 634.0, 635.0, 633.0, 636.0, 634.0, 633.0, 636.0, 635.0, 635.0, 638.0, 634.0, 634.0, 635.0, 633.0, 634.0, 633.0, 635.0, 636.0, 635.0, 634.0, 636.0, 633.0, 634.0, 636.0, 634.0, 634.0, 635.0, 637.0, 636.0, 636.0, 636.0, 637.0, 634.0, 634.0, 636.0, 634.0, 634.0, 634.0, 636.0, 635.0, 636.0, 635.0, 634.0, 634.0, 637.0, 634.0, 634.0, 634.0, 636.0, 634.0, 634.0, 634.0, 636.0, 635.0, 634.0, 634.0, 635.0, 634.0, 635.0, 635.0, 637.0, 635.0, 635.0, 636.0, 634.0, 634.0, 635.0, 634.0, 634.0, 636.0, 634.0, 634.0, 635.0, 634.0, 634.0, 633.0, 634.0, 636.0, 633.0, 633.0, 634.0, 636.0, 635.0, 636.0, 634.0],
      "WindowWidth": [1353.0, 1349.0, 1344.0, 1343.0, 1349.0, 1343.0, 1342.0, 1347.0, 1342.0, 1348.0, 1345.0, 1351.0, 1348.0, 1352.0, 1346.0, 1350.0, 1345.0, 1347.0, 1349.0, 1350.0, 1352.0, 1349.0, 1347.0, 1350.0, 1346.0, 1347.0, 1344.0, 1346.0, 1344.0, 1344.0, 1345.0, 1349.0, 1345.0, 1349.0, 1346.0, 1352.0, 1346.0, 1346.0, 1351.0, 1345.0, 1348.0, 1344.0, 1344.0, 1346.0, 1345.0, 1350.0, 1344.0, 1345.0, 1347.0, 1344.0, 1349.0, 1344.0, 1344.0, 1349.0, 1347.0, 1347.0, 1352.0, 1345.0, 1345.0, 1346.0, 1342.0, 1345.0, 1344.0, 1347.0, 1350.0, 1346.0, 1345.0, 1349.0, 1344.0, 1345.0, 1349.0, 1345.0, 1346.0, 1348.0, 1352.0, 1349.0, 1350.0, 1349.0, 1352.0, 1345.0, 1345.0, 1349.0, 1345.0, 1346.0, 1346.0, 1350.0, 1348.0, 1350.0, 1347.0, 1346.0, 1345.0, 1351.0, 1346.0, 1346.0, 1345.0, 1349.0, 1344.0, 1345.0, 1346.0, 1349.0, 1347.0, 1345.0, 1345.0, 1346.0, 1345.0, 1346.0, 1347.0, 1350.0, 1347.0, 1347.0, 1348.0, 1346.0, 1346.0, 1347.0, 1345.0, 1345.0, 1349.0, 1345.0, 1344.0, 1347.0, 1345.0, 1345.0, 1344.0, 1345.0, 1348.0, 1343.0, 1344.0, 1346.0, 1350.0, 1347.0, 1350.0, 1346.0]
    },
    "slices": {}
  }
}