{
  "AcquisitionMatrixPE": 72,
  "AcquisitionNumber": 1,
  "AcquisitionTime": "19:27:21.287500",
  "BodyPartExamined": "BRAIN",
  "ConversionSoftware": "dcm2niix",
  "ConversionSoftwareVersion": "v1.0.20220720",
  "DeviceSerialNumber": "67041",
  "EchoNumber": 2,
  "EchoTime": 0.00738,
  "EchoTime1": 0.00492,
  "EchoTime2": 0.00738,
  "FlipAngle": 60,
  "HeudiconvVersion": "1.1.6",
  "ImageOrientationPatientDICOM": [0.99911, 0.0218316, 0.0361018, -0.0209284, 0.999463, -0.0252102],
  "ImageType": [
    "ORIGINAL",
    "PRIMARY",
    "P",
    "ND",
    "PHASE"
],
  "ImagingFrequency": 123.261,
  "InPlanePhaseEncodingDirectionDICOM": "ROW",
  "InstitutionAddress": "First Ave. 660,New York,New York,US,10021",
  "InstitutionName": "NYU Langone CBI",
  "InstitutionalDepartmentName": "Department",
  "MRAcquisitionType": "2D",
  "MagneticFieldStrength": 3,
  "Manufacturer": "Siemens",
  "ManufacturersModelName": "DicomCleaner",
  "Modality": "MR",
  "MultibandAccelerationFactor": 2,
  "NonlinearGradientCorrection": false,
  "PatientPosition": "HFS",
  "PercentPhaseFOV": 100,
  "PercentSampling": 100,
  "PhaseEncodingAxis": "i",
  "PhaseEncodingSteps": 72,
  "PixelBandwidth": 290,
  "ProcedureStepDescription": "MRI BRAIN WITHOUT IV CONTRAST",
  "ProtocolName": "gre_fm_bold",
  "ReconMatrixPE": 72,
  "RepetitionTime": 0.444,
  "SAR": 0.202837,
  "ScanningSequence": "GR",
  "SequenceName": "*fm2d2r",
  "SequenceVariant": "SP",
  "SeriesDescription": "gre_fm_bold",
  "SeriesNumber": 4,
  "SliceThickness": 3,
  "SliceTiming": [0.21875, 0, 0.23438, 0.01562, 0.25, 0.03125, 0.26562, 0.03125, 0.26562, 0.04688, 0.28125, 0.0625, 0.29688, 0.07812, 0.3125, 0.07812, 0.3125, 0.09375, 0.32812, 0.10938, 0.34375, 0.125, 0.35938, 0.125, 0.35938, 0.14062, 0.375, 0.15625, 0.39062, 0.17188, 0.40625, 0.17188, 0.40625, 0.1875, 0.42188, 0.20312, 0.4375, 0.21875],
  "SoftwareVersions": "Tue Oct 22 14:01:57 EDT 2019",
  "SpacingBetweenSlices": 3,
  "StationName": "CBIMRIMGRPC1_111",
  "dcmmeta_affine": [
    [-2.997328758239746, -0.0627850890159607, 0.10989832878112793, 103.99776458740234],
    [-0.06549475342035294, 2.99838924407959, -0.07329654693603516, -84.1165771484375],
    [0.10830532759428024, 0.07563053071498871, 2.9970932006835938, -3.493730306625366],
    [0.0, 0.0, 0.0, 1.0]
],
  "dcmmeta_reorient_transform": [
    [0.0, -1.0, 0.0, 71.0],
    [1.0, 0.0, 0.0, 0.0],
    [0.0, 0.0, -1.0, 37.0],
    [0.0, 0.0, 0.0, 1.0]
],
  "dcmmeta_shape": [72, 72, 38],
  "dcmmeta_slice_dim": 2,
  "dcmmeta_version": 0.6,
  "global": {
    "const": {
      "AcquisitionMatrix": [0, 72, 72, 0],
      "AcquisitionNumber": 1,
      "AngioFlag": "N",
      "BitsAllocated": 16,
      "BitsStored": 12,
      "BodyPartExamined": "BRAIN",
      "Columns": 72,
      "DeidentificationMethod": [
        "Deidentified",
        "Descriptors retained",
        "Patient Characteristics retained",
        "Device identity retained",
        "Institution identity retained",
        "Dates retained",
        "Structured content retained",
        "Unsafe private removed",
        "UIDs remapped"
],
      "DeidentificationMethodCodeSequence": [
        {
          "CodeMeaning": "Basic Application Confidentiality Profile",
          "CodeValue": "113100",
          "CodingSchemeDesignator": "DCM"
        },
        {
          "CodeMeaning": "Retain all descriptors unchanged",
          "CodeValue": "210005",
          "CodingSchemeDesignator": "99PMP"
        },
        {
          "CodeMeaning": "Retain Patient Characteristics Option",
          "CodeValue": "113108",
          "CodingSchemeDesignator": "DCM"
        },
        {
          "CodeMeaning": "Retain Device Identity Option",
          "CodeValue": "113109",
          "CodingSchemeDesignator": "DCM"
        },
        {
          "CodeMeaning": "Retain Institution Identity Option",
          "CodeValue": "113112",
          "CodingSchemeDesignator": "DCM"
        },
        {
          "CodeMeaning": "Retain Longitudinal Temporal Information Full Dates Option",
          "CodeValue": "113106",
          "CodingSchemeDesignator": "DCM"
        },
        {
          "CodeMeaning": "Retain all structured content unchanged",
          "CodeValue": "210011",
          "CodingSchemeDesignator": "99PMP"
        },
        {
          "CodeMeaning": "Retain Safe Private Option",
          "CodeValue": "113111",
          "CodingSchemeDesignator": "DCM"
        },
        {
          "CodeMeaning": "Remap UIDs",
          "CodeValue": "210001",
          "CodingSchemeDesignator": "99PMP"
        }
],
      "EchoNumbers": 2,
      "EchoTime": 7.38,
      "EchoTrainLength": 0,
      "FlipAngle": 60.0,
      "HighBit": 11,
      "ImageOrientationPatient": [0.99910962550699, 0.02183158351187, 0.03610177531149, -0.0209283636936, 0.99946308116749, -0.0252101760466],
      "ImageType": [
        "ORIGINAL",
        "PRIMARY",
        "P",
        "ND"
],
      "ImagedNucleus": "1H",
      "ImagingFrequency": 123.260931,
      "InPlanePhaseEncodingDirection": "ROW",
      "MRAcquisitionType": "2D",
      "MagneticFieldStrength": 3.0,
      "Manufacturer": "SIEMENS",
      "ManufacturerModelName": "Prisma_fit",
      "Modality": "MR",
      "NumberOfAverages": 1.0,
      "NumberOfPhaseEncodingSteps": 72,
      "PercentPhaseFieldOfView": 100.0,
      "PercentSampling": 100.0,
      "PerformedProcedureStepStartTime": "191915.800000",
      "PhotometricInterpretation": "MONOCHROME2",
      "PixelBandwidth": 290.0,
      "PixelRepresentation": 0,
      "PixelSpacing": [3.0, 3.0],
      "PregnancyStatus": 4,
      "ProcedureCodeSequence": [
        {
          "CodeMeaning": "MRI BRAIN WITHOUT IV CONTRAST",
          "CodeValue": "IMG269",
          "CodingSchemeDesignator": "L"
        }
],
      "ProtocolName": "gre_fm_bold",
      "RepetitionTime": 444.0,
      "RequestedProcedureCodeSequence": [
        {
          "CodeMeaning": "MRI BRAIN WITHOUT IV CONTRAST",
          "CodeValue": "IMG269",
          "CodingSchemeDesignator": "L"
        }
],
      "RescaleIntercept": -4096.0,
      "RescaleSlope": 2.0,
      "RescaleType": "US",
      "Rows": 72,
      "SAR": 0.20283747981671,
      "SamplesPerPixel": 1,
      "ScanningSequence": "GR",
      "SequenceName": "*fm2d2r",
      "SequenceVariant": "SP",
      "SeriesDescription": "gre_fm_bold",
      "SeriesNumber": 4,
      "SeriesTime": "192825.127000",
      "SliceThickness": 3.0,
      "SmokingStatus": "UNKNOWN",
      "SoftwareVersions": "syngo MR E11",
      "SpacingBetweenSlices": 3.0,
      "StudyTime": "191915.636000",
      "TransmitCoilName": "Body",
      "VariableFlipAngleFlag": "N",
      "WindowCenterWidthExplanation": "Algo1",
      "dBdt": 0.0},
    "slices": {
      "AcquisitionTime": ["192721.287500", "192721.065000", "192721.300000", "192721.077500", "192721.312500", "192721.090000", "192721.322500", "192721.100000", "192721.335000", "192721.112500", "192721.347500", "192721.125000", "192721.357500", "192721.135000", "192721.370000", "192721.147500", "192721.382500", "192721.160000", "192721.392500", "192721.170000", "192721.405000", "192721.182500", "192721.417500", "192721.195000", "192721.427500", "192721.205000", "192721.440000", "192721.217500", "192721.452500", "192721.230000", "192721.462500", "192721.240000", "192721.475000", "192721.252500", "192721.487500", "192721.265000", "192721.497500", "192721.277500"],
      "ContentTime": ["192825.186000", "192825.129000", "192825.189000", "192825.139000", "192825.192000", "192825.141000", "192825.194000", "192825.144000", "192825.198000", "192825.146000", "192825.207000", "192825.149000", "192825.209000", "192825.152000", "192825.211000", "192825.154000", "192825.213000", "192825.157000", "192825.216000", "192825.160000", "192825.218000", "192825.163000", "192825.220000", "192825.165000", "192825.222000", "192825.168000", "192825.224000", "192825.171000", "192825.226000", "192825.174000", "192825.228000", "192825.176000", "192825.230000", "192825.179000", "192825.232000", "192825.181000", "192825.234000", "192825.183000"],
      "ContributingEquipmentSequence": [
        [
          {
            "ContributionDateTime": "20220714145952.010-0400",
            "ContributionDescription": "Cleaned",
            "Manufacturer": "PixelMed",
            "ManufacturerModelName": "DicomCleaner",
            "PurposeOfReferenceCodeSequence": [
              {
                "CodeMeaning": "De-identifying Equipment",
                "CodeValue": "109104",
                "CodingSchemeDesignator": "DCM"
              }
],
            "SoftwareVersions": "Tue Oct 22 14:01:57 EDT 2019",
            "StationName": "CBIMRIMGRPC1_111"
          }
],
        [
          {
            "ContributionDateTime": "20220714145952.015-0400",
            "ContributionDescription": "Cleaned",
            "Manufacturer": "PixelMed",
            "ManufacturerModelName": "DicomCleaner",
            "PurposeOfReferenceCodeSequence": [
              {
                "CodeMeaning": "De-identifying Equipment",
                "CodeValue": "109104",
                "CodingSchemeDesignator": "DCM"
              }
],
            "SoftwareVersions": "Tue Oct 22 14:01:57 EDT 2019",
            "StationName": "CBIMRIMGRPC1_111"
          }
],
        [
          {
            "ContributionDateTime": "20220714145952.020-0400",
            "ContributionDescription": "Cleaned",
            "Manufacturer": "PixelMed",
            "ManufacturerModelName": "DicomCleaner",
            "PurposeOfReferenceCodeSequence": [
              {
                "CodeMeaning": "De-identifying Equipment",
                "CodeValue": "109104",
                "CodingSchemeDesignator": "DCM"
              }
],
            "SoftwareVersions": "Tue Oct 22 14:01:57 EDT 2019",
            "StationName": "CBIMRIMGRPC1_111"
          }
],
        [
          {
            "ContributionDateTime": "20220714145952.024-0400",
            "ContributionDescription": "Cleaned",
            "Manufacturer": "PixelMed",
            "ManufacturerModelName": "DicomCleaner",
            "PurposeOfReferenceCodeSequence": [
              {
                "CodeMeaning": "De-identifying Equipment",
                "CodeValue": "109104",
                "CodingSchemeDesignator": "DCM"
              }
],
            "SoftwareVersions": "Tue Oct 22 14:01:57 EDT 2019",
            "StationName": "CBIMRIMGRPC1_111"
          }
],
        [
          {
            "ContributionDateTime": "20220714145952.033-0400",
            "ContributionDescription": "Cleaned",
            "Manufacturer": "PixelMed",
            "ManufacturerModelName": "DicomCleaner",
            "PurposeOfReferenceCodeSequence": [
              {
                "CodeMeaning": "De-identifying Equipment",
                "CodeValue": "109104",
                "CodingSchemeDesignator": "DCM"
              }
],
            "SoftwareVersions": "Tue Oct 22 14:01:57 EDT 2019",
            "StationName": "CBIMRIMGRPC1_111"
          }
],
        [
          {
            "ContributionDateTime": "20220714145952.038-0400",
            "ContributionDescription": "Cleaned",
            "Manufacturer": "PixelMed",
            "ManufacturerModelName": "DicomCleaner",
            "PurposeOfReferenceCodeSequence": [
              {
                "CodeMeaning": "De-identifying Equipment",
                "CodeValue": "109104",
                "CodingSchemeDesignator": "DCM"
              }
],
            "SoftwareVersions": "Tue Oct 22 14:01:57 EDT 2019",
            "StationName": "CBIMRIMGRPC1_111"
          }
],
        [
          {
            "ContributionDateTime": "20220714145952.043-0400",
            "ContributionDescription": "Cleaned",
            "Manufacturer": "PixelMed",
            "ManufacturerModelName": "DicomCleaner",
            "PurposeOfReferenceCodeSequence": [
              {
                "CodeMeaning": "De-identifying Equipment",
                "CodeValue": "109104",
                "CodingSchemeDesignator": "DCM"
              }
],
            "SoftwareVersions": "Tue Oct 22 14:01:57 EDT 2019",
            "StationName": "CBIMRIMGRPC1_111"
          }
],
        [
          {
            "ContributionDateTime": "20220714145952.048-0400",
            "ContributionDescription": "Cleaned",
            "Manufacturer": "PixelMed",
            "ManufacturerModelName": "DicomCleaner",
            "PurposeOfReferenceCodeSequence": [
              {
                "CodeMeaning": "De-identifying Equipment",
                "CodeValue": "109104",
                "CodingSchemeDesignator": "DCM"
              }
],
            "SoftwareVersions": "Tue Oct 22 14:01:57 EDT 2019",
            "StationName": "CBIMRIMGRPC1_111"
          }
],
        [
          {
            "ContributionDateTime": "20220714145952.052-0400",
            "ContributionDescription": "Cleaned",
            "Manufacturer": "PixelMed",
            "ManufacturerModelName": "DicomCleaner",
            "PurposeOfReferenceCodeSequence": [
              {
                "CodeMeaning": "De-identifying Equipment",
                "CodeValue": "109104",
                "CodingSchemeDesignator": "DCM"
              }
],
            "SoftwareVersions": "Tue Oct 22 14:01:57 EDT 2019",
            "StationName": "CBIMRIMGRPC1_111"
          }
],
        [
          {
            "ContributionDateTime": "20220714145952.057-0400",
            "ContributionDescription": "Cleaned",
            "Manufacturer": "PixelMed",
            "ManufacturerModelName": "DicomCleaner",
            "PurposeOfReferenceCodeSequence": [
              {
                "CodeMeaning": "De-identifying Equipment",
                "CodeValue": "109104",
                "CodingSchemeDesignator": "DCM"
              }
],
            "SoftwareVersions": "Tue Oct 22 14:01:57 EDT 2019",
            "StationName": "CBIMRIMGRPC1_111"
          }
],
        [
          {
            "ContributionDateTime": "20220714145952.061-0400",
            "ContributionDescription": "Cleaned",
            "Manufacturer": "PixelMed",
            "ManufacturerModelName": "DicomCleaner",
            "PurposeOfReferenceCodeSequence": [
              {
                "CodeMeaning": "De-identifying Equipment",
                "CodeValue": "109104",
                "CodingSchemeDesignator": "DCM"
              }
],
            "SoftwareVersions": "Tue Oct 22 14:01:57 EDT 2019",
            "StationName": "CBIMRIMGRPC1_111"
          }
],
        [
          {
            "ContributionDateTime": "20220714145952.067-0400",
            "ContributionDescription": "Cleaned",
            "Manufacturer": "PixelMed",
            "ManufacturerModelName": "DicomCleaner",
            "PurposeOfReferenceCodeSequence": [
              {
                "CodeMeaning": "De-identifying Equipment",
                "CodeValue": "109104",
                "CodingSchemeDesignator": "DCM"
              }
],
            "SoftwareVersions": "Tue Oct 22 14:01:57 EDT 2019",
            "StationName": "CBIMRIMGRPC1_111"
          }
],
        [
          {
            "ContributionDateTime": "20220714145952.071-0400",
            "ContributionDescription": "Cleaned",
            "Manufacturer": "PixelMed",
            "ManufacturerModelName": "DicomCleaner",
            "PurposeOfReferenceCodeSequence": [
              {
                "CodeMeaning": "De-identifying Equipment",
                "CodeValue": "109104",
                "CodingSchemeDesignator": "DCM"
              }
],
            "SoftwareVersions": "Tue Oct 22 14:01:57 EDT 2019",
            "StationName": "CBIMRIMGRPC1_111"
          }
],
        [
          {
            "ContributionDateTime": "20220714145952.075-0400",
            "ContributionDescription": "Cleaned",
            "Manufacturer": "PixelMed",
            "ManufacturerModelName": "DicomCleaner",
            "PurposeOfReferenceCodeSequence": [
              {
                "CodeMeaning": "De-identifying Equipment",
                "CodeValue": "109104",
                "CodingSchemeDesignator": "DCM"
              }
],
            "SoftwareVersions": "Tue Oct 22 14:01:57 EDT 2019",
            "StationName": "CBIMRIMGRPC1_111"
          }
],
        [
          {
            "ContributionDateTime": "20220714145952.080-0400",
            "ContributionDescription": "Cleaned",
            "Manufacturer": "PixelMed",
            "ManufacturerModelName": "DicomCleaner",
            "PurposeOfReferenceCodeSequence": [
              {
                "CodeMeaning": "De-identifying Equipment",
                "CodeValue": "109104",
                "CodingSchemeDesignator": "DCM"
              }
],
            "SoftwareVersions": "Tue Oct 22 14:01:57 EDT 2019",
            "StationName": "CBIMRIMGRPC1_111"
          }
],
        [
          {
            "ContributionDateTime": "20220714145952.084-0400",
            "ContributionDescription": "Cleaned",
            "Manufacturer": "PixelMed",
            "ManufacturerModelName": "DicomCleaner",
            "PurposeOfReferenceCodeSequence": [
              {
                "CodeMeaning": "De-identifying Equipment",
                "CodeValue": "109104",
                "CodingSchemeDesignator": "DCM"
              }
],
            "SoftwareVersions": "Tue Oct 22 14:01:57 EDT 2019",
            "StationName": "CBIMRIMGRPC1_111"
          }
],
        [
          {
            "ContributionDateTime": "20220714145952.090-0400",
            "ContributionDescription": "Cleaned",
            "Manufacturer": "PixelMed",
            "ManufacturerModelName": "DicomCleaner",
            "PurposeOfReferenceCodeSequence": [
              {
                "CodeMeaning": "De-identifying Equipment",
                "CodeValue": "109104",
                "CodingSchemeDesignator": "DCM"
              }
],
            "SoftwareVersions": "Tue Oct 22 14:01:57 EDT 2019",
            "StationName": "CBIMRIMGRPC1_111"
          }
],
        [
          {
            "ContributionDateTime": "20220714145952.093-0400",
            "ContributionDescription": "Cleaned",
            "Manufacturer": "PixelMed",
            "ManufacturerModelName": "DicomCleaner",
            "PurposeOfReferenceCodeSequence": [
              {
                "CodeMeaning": "De-identifying Equipment",
                "CodeValue": "109104",
                "CodingSchemeDesignator": "DCM"
              }
],
            "SoftwareVersions": "Tue Oct 22 14:01:57 EDT 2019",
            "StationName": "CBIMRIMGRPC1_111"
          }
],
        [
          {
            "ContributionDateTime": "20220714145952.099-0400",
            "ContributionDescription": "Cleaned",
            "Manufacturer": "PixelMed",
            "ManufacturerModelName": "DicomCleaner",
            "PurposeOfReferenceCodeSequence": [
              {
                "CodeMeaning": "De-identifying Equipment",
                "CodeValue": "109104",
                "CodingSchemeDesignator": "DCM"
              }
],
            "SoftwareVersions": "Tue Oct 22 14:01:57 EDT 2019",
            "StationName": "CBIMRIMGRPC1_111"
          }
],
        [
          {
            "ContributionDateTime": "20220714145952.104-0400",
            "ContributionDescription": "Cleaned",
            "Manufacturer": "PixelMed",
            "ManufacturerModelName": "DicomCleaner",
            "PurposeOfReferenceCodeSequence": [
              {
                "CodeMeaning": "De-identifying Equipment",
                "CodeValue": "109104",
                "CodingSchemeDesignator": "DCM"
              }
],
            "SoftwareVersions": "Tue Oct 22 14:01:57 EDT 2019",
            "StationName": "CBIMRIMGRPC1_111"
          }
],
        [
          {
            "ContributionDateTime": "20220714145952.108-0400",
            "ContributionDescription": "Cleaned",
            "Manufacturer": "PixelMed",
            "ManufacturerModelName": "DicomCleaner",
            "PurposeOfReferenceCodeSequence": [
              {
                "CodeMeaning": "De-identifying Equipment",
                "CodeValue": "109104",
                "CodingSchemeDesignator": "DCM"
              }
],
            "SoftwareVersions": "Tue Oct 22 14:01:57 EDT 2019",
            "StationName": "CBIMRIMGRPC1_111"
          }
],
        [
          {
            "ContributionDateTime": "20220714145952.113-0400",
            "ContributionDescription": "Cleaned",
            "Manufacturer": "PixelMed",
            "ManufacturerModelName": "DicomCleaner",
            "PurposeOfReferenceCodeSequence": [
              {
                "CodeMeaning": "De-identifying Equipment",
                "CodeValue": "109104",
                "CodingSchemeDesignator": "DCM"
              }
],
            "SoftwareVersions": "Tue Oct 22 14:01:57 EDT 2019",
            "StationName": "CBIMRIMGRPC1_111"
          }
],
        [
          {
            "ContributionDateTime": "20220714145952.117-0400",
            "ContributionDescription": "Cleaned",
            "Manufacturer": "PixelMed",
            "ManufacturerModelName": "DicomCleaner",
            "PurposeOfReferenceCodeSequence": [
              {
                "CodeMeaning": "De-identifying Equipment",
                "CodeValue": "109104",
                "CodingSchemeDesignator": "DCM"
              }
],
            "SoftwareVersions": "Tue Oct 22 14:01:57 EDT 2019",
            "StationName": "CBIMRIMGRPC1_111"
          }
],
        [
          {
            "ContributionDateTime": "20220714145952.123-0400",
            "ContributionDescription": "Cleaned",
            "Manufacturer": "PixelMed",
            "ManufacturerModelName": "DicomCleaner",
            "PurposeOfReferenceCodeSequence": [
              {
                "CodeMeaning": "De-identifying Equipment",
                "CodeValue": "109104",
                "CodingSchemeDesignator": "DCM"
              }
],
            "SoftwareVersions": "Tue Oct 22 14:01:57 EDT 2019",
            "StationName": "CBIMRIMGRPC1_111"
          }
],
        [
          {
            "ContributionDateTime": "20220714145952.128-0400",
            "ContributionDescription": "Cleaned",
            "Manufacturer": "PixelMed",
            "ManufacturerModelName": "DicomCleaner",
            "PurposeOfReferenceCodeSequence": [
              {
                "CodeMeaning": "De-identifying Equipment",
                "CodeValue": "109104",
                "CodingSchemeDesignator": "DCM"
              }
],
            "SoftwareVersions": "Tue Oct 22 14:01:57 EDT 2019",
            "StationName": "CBIMRIMGRPC1_111"
          }
],
        [
          {
            "ContributionDateTime": "20220714145952.133-0400",
            "ContributionDescription": "Cleaned",
            "Manufacturer": "PixelMed",
            "ManufacturerModelName": "DicomCleaner",
            "PurposeOfReferenceCodeSequence": [
              {
                "CodeMeaning": "De-identifying Equipment",
                "CodeValue": "109104",
                "CodingSchemeDesignator": "DCM"
              }
],
            "SoftwareVersions": "Tue Oct 22 14:01:57 EDT 2019",
            "StationName": "CBIMRIMGRPC1_111"
          }
],
        [
          {
            "ContributionDateTime": "20220714145952.137-0400",
            "ContributionDescription": "Cleaned",
            "Manufacturer": "PixelMed",
            "ManufacturerModelName": "DicomCleaner",
            "PurposeOfReferenceCodeSequence": [
              {
                "CodeMeaning": "De-identifying Equipment",
                "CodeValue": "109104",
                "CodingSchemeDesignator": "DCM"
              }
],
            "SoftwareVersions": "Tue Oct 22 14:01:57 EDT 2019",
            "StationName": "CBIMRIMGRPC1_111"
          }
],
        [
          {
            "ContributionDateTime": "20220714145952.142-0400",
            "ContributionDescription": "Cleaned",
            "Manufacturer": "PixelMed",
            "ManufacturerModelName": "DicomCleaner",
            "PurposeOfReferenceCodeSequence": [
              {
                "CodeMeaning": "De-identifying Equipment",
                "CodeValue": "109104",
                "CodingSchemeDesignator": "DCM"
              }
],
            "SoftwareVersions": "Tue Oct 22 14:01:57 EDT 2019",
            "StationName": "CBIMRIMGRPC1_111"
          }
],
        [
          {
            "ContributionDateTime": "20220714145952.146-0400",
            "ContributionDescription": "Cleaned",
            "Manufacturer": "PixelMed",
            "ManufacturerModelName": "DicomCleaner",
            "PurposeOfReferenceCodeSequence": [
              {
                "CodeMeaning": "De-identifying Equipment",
                "CodeValue": "109104",
                "CodingSchemeDesignator": "DCM"
              }
],
            "SoftwareVersions": "Tue Oct 22 14:01:57 EDT 2019",
            "StationName": "CBIMRIMGRPC1_111"
          }
],
        [
          {
            "ContributionDateTime": "20220714145952.150-0400",
            "ContributionDescription": "Cleaned",
            "Manufacturer": "PixelMed",
            "ManufacturerModelName": "DicomCleaner",
            "PurposeOfReferenceCodeSequence": [
              {
                "CodeMeaning": "De-identifying Equipment",
                "CodeValue": "109104",
                "CodingSchemeDesignator": "DCM"
              }
],
            "SoftwareVersions": "Tue Oct 22 14:01:57 EDT 2019",
            "StationName": "CBIMRIMGRPC1_111"
          }
],
        [
          {
            "ContributionDateTime": "20220714145952.154-0400",
            "ContributionDescription": "Cleaned",
            "Manufacturer": "PixelMed",
            "ManufacturerModelName": "DicomCleaner",
            "PurposeOfReferenceCodeSequence": [
              {
                "CodeMeaning": "De-identifying Equipment",
                "CodeValue": "109104",
                "CodingSchemeDesignator": "DCM"
              }
],
            "SoftwareVersions": "Tue Oct 22 14:01:57 EDT 2019",
            "StationName": "CBIMRIMGRPC1_111"
          }
],
        [
          {
            "ContributionDateTime": "20220714145952.160-0400",
            "ContributionDescription": "Cleaned",
            "Manufacturer": "PixelMed",
            "ManufacturerModelName": "DicomCleaner",
            "PurposeOfReferenceCodeSequence": [
              {
                "CodeMeaning": "De-identifying Equipment",
                "CodeValue": "109104",
                "CodingSchemeDesignator": "DCM"
              }
],
            "SoftwareVersions": "Tue Oct 22 14:01:57 EDT 2019",
            "StationName": "CBIMRIMGRPC1_111"
          }
],
        [
          {
            "ContributionDateTime": "20220714145952.166-0400",
            "ContributionDescription": "Cleaned",
            "Manufacturer": "PixelMed",
            "ManufacturerModelName": "DicomCleaner",
            "PurposeOfReferenceCodeSequence": [
              {
                "CodeMeaning": "De-identifying Equipment",
                "CodeValue": "109104",
                "CodingSchemeDesignator": "DCM"
              }
],
            "SoftwareVersions": "Tue Oct 22 14:01:57 EDT 2019",
            "StationName": "CBIMRIMGRPC1_111"
          }
],
        [
          {
            "ContributionDateTime": "20220714145952.170-0400",
            "ContributionDescription": "Cleaned",
            "Manufacturer": "PixelMed",
            "ManufacturerModelName": "DicomCleaner",
            "PurposeOfReferenceCodeSequence": [
              {
                "CodeMeaning": "De-identifying Equipment",
                "CodeValue": "109104",
                "CodingSchemeDesignator": "DCM"
              }
],
            "SoftwareVersions": "Tue Oct 22 14:01:57 EDT 2019",
            "StationName": "CBIMRIMGRPC1_111"
          }
],
        [
          {
            "ContributionDateTime": "20220714145952.175-0400",
            "ContributionDescription": "Cleaned",
            "Manufacturer": "PixelMed",
            "ManufacturerModelName": "DicomCleaner",
            "PurposeOfReferenceCodeSequence": [
              {
                "CodeMeaning": "De-identifying Equipment",
                "CodeValue": "109104",
                "CodingSchemeDesignator": "DCM"
              }
],
            "SoftwareVersions": "Tue Oct 22 14:01:57 EDT 2019",
            "StationName": "CBIMRIMGRPC1_111"
          }
],
        [
          {
            "ContributionDateTime": "20220714145952.179-0400",
            "ContributionDescription": "Cleaned",
            "Manufacturer": "PixelMed",
            "ManufacturerModelName": "DicomCleaner",
            "PurposeOfReferenceCodeSequence": [
              {
                "CodeMeaning": "De-identifying Equipment",
                "CodeValue": "109104",
                "CodingSchemeDesignator": "DCM"
              }
],
            "SoftwareVersions": "Tue Oct 22 14:01:57 EDT 2019",
            "StationName": "CBIMRIMGRPC1_111"
          }
],
        [
          {
            "ContributionDateTime": "20220714145952.183-0400",
            "ContributionDescription": "Cleaned",
            "Manufacturer": "PixelMed",
            "ManufacturerModelName": "DicomCleaner",
            "PurposeOfReferenceCodeSequence": [
              {
                "CodeMeaning": "De-identifying Equipment",
                "CodeValue": "109104",
                "CodingSchemeDesignator": "DCM"
              }
],
            "SoftwareVersions": "Tue Oct 22 14:01:57 EDT 2019",
            "StationName": "CBIMRIMGRPC1_111"
          }
],
        [
          {
            "ContributionDateTime": "20220714145952.188-0400",
            "ContributionDescription": "Cleaned",
            "Manufacturer": "PixelMed",
            "ManufacturerModelName": "DicomCleaner",
            "PurposeOfReferenceCodeSequence": [
              {
