{
  "AcquisitionMatrixPE": 72,
  "AcquisitionNumber": 1,
  "AcquisitionTime": "20:40:27.917500",
  "BandwidthPerPixelPhaseEncode": 24.366,
  "BaseResolution": 72,
  "BodyPartExamined": "BRAIN",
  "CoilCombinationMethod": "Sum of Squares",
  "ConsistencyInfo": "N4_VE11C_LATEST_20160120",
  "ConversionSoftware": "dcm2niix",
  "ConversionSoftwareVersion": "v1.0.20220720",
  "DerivedVendorReportedEchoSpacing": 0.000570011,
  "DeviceSerialNumber": "45219",
  "DwellTime": 3.5e-06,
  "EchoTime": 0.03,
  "EchoTrainLength": 72,
  "EffectiveEchoSpacing": 0.000570011,
  "FlipAngle": 80,
  "HeudiconvVersion": "1.1.6",
  "ImageOrientationPatientDICOM": [1, 0, 0, 0, 0.995562, 0.0941083],
  "ImageOrientationText": "Tra>Cor(5.4)",
  "ImageType": [
    "ORIGINAL",
    "PRIMARY",
    "M",
    "ND",
    "NORM",
    "MOSAIC"
],
  "ImagingFrequency": 123.182,
  "InPlanePhaseEncodingDirectionDICOM": "COL",
  "InstitutionAddress": "First Avenue 660,New York,NYC,US,10016",
  "InstitutionName": "NYU LANGONE CBI",
  "InstitutionalDepartmentName": "Department",
  "MRAcquisitionType": "2D",
  "MagneticFieldStrength": 3,
  "Manufacturer": "Siemens",
  "ManufacturersModelName": "Skyra",
  "MatrixCoilMode": "SENSE",
  "Modality": "MR",
  "NonlinearGradientCorrection": false,
  "PartialFourier": 1,
  "PatientPosition": "HFS",
  "PercentPhaseFOV": 100,
  "PercentSampling": 100,
  "PhaseEncodingDirection": "j-",
  "PhaseEncodingSteps": 72,
  "PhaseResolution": 1,
  "PixelBandwidth": 1985,
  "ProcedureStepDescription": "MRI BRAIN WITHOUT IV CONTRAST",
  "ProtocolName": "TASK_AB",
  "PulseSequenceDetails": "%SiemensSeq%\\ep2d_bold",
  "ReceiveCoilActiveElements": "HE1-4",
  "ReceiveCoilName": "HeadNeck_20",
  "ReconMatrixPE": 72,
  "RepetitionTime": 2.5,
  "SAR": 0.10913,
  "ScanOptions": "FS",
  "ScanningSequence": "EP",
  "SequenceName": "*epfid2d1_72",
  "SequenceVariant": "SK",
  "SeriesDescription": "TASK_AB",
  "SeriesNumber": 10,
  "ShimSetting": [-903, -7025, 5036, 239, -206, 418, 502, -213],
  "SliceThickness": 3,
  "SliceTiming": [1.24, 0, 1.305, 0.065, 1.37, 0.13, 1.435, 0.195, 1.5, 0.26, 1.565, 0.325, 1.63, 0.39, 1.6975, 0.4575, 1.7625, 0.5225, 1.8275, 0.5875, 1.8925, 0.6525, 1.9575, 0.7175, 2.0225, 0.7825, 2.0875, 0.8475, 2.1525, 0.9125, 2.2175, 0.9775, 2.2825, 1.0425, 2.35, 1.11, 2.415, 1.175],
  "SoftwareVersions": "syngo MR E11",
  "SpacingBetweenSlices": 3,
  "StationName": "MRC45219",
  "TaskName": "ab",
  "TotalReadoutTime": 0.0404708,
  "TxRefAmp": 406.508,
  "dcmmeta_affine": [
    [-3.0, 0.0, 0.0, 108.0],
    [0.0, 2.9866859912872314, 0.28232496976852417, -112.11309814453125],
    [0.0, -0.28232496976852417, 2.9866859912872314, -30.659881591796875],
    [0.0, 0.0, 0.0, 1.0]
],
  "dcmmeta_reorient_transform": [
    [0.0, -1.0, 0.0, 71.0],
    [1.0, 0.0, 0.0, 0.0],
    [0.0, 0.0, 1.0, 0.0],
    [0.0, 0.0, 0.0, 1.0]
],
  "dcmmeta_shape": [72, 72, 38, 132],
  "dcmmeta_slice_dim": 2,
  "dcmmeta_version": 0.6,
  "global": {
    "const": {
      "AcquisitionMatrix": [72, 0, 0, 72],
      "AngioFlag": "N",
      "BitsAllocated": 16,
      "BitsStored": 12,
      "BodyPartExamined": "BRAIN",
      "Columns": 504,
      "CountryOfResidence": "United States of America [1]",
      "EchoNumbers": 1,
      "EchoTime": 30.0,
      "EchoTrainLength": 72,
      "FlipAngle": 80.0,
      "HighBit": 11,
      "ImageOrientationPatient": [1.0, 0.0, 0.0, 0.0, 0.99556196389853, 0.09410832077188],
      "ImagePositionPatient": [-756.0, -745.06575458888, -111.68714645447],
      "ImageType": [
        "ORIGINAL",
        "PRIMARY",
        "M",
        "ND",
        "NORM",
        "MOSAIC"
],
      "ImagedNucleus": "1H",
      "ImagingFrequency": 123.182218,
      "InPlanePhaseEncodingDirection": "COL",
      "MRAcquisitionType": "2D",
      "MagneticFieldStrength": 3.0,
      "Manufacturer": "SIEMENS",
      "ManufacturerModelName": "Skyra",
      "Modality": "MR",
      "NumberOfAverages": 1.0,
      "NumberOfPhaseEncodingSteps": 72,
      "PercentPhaseFieldOfView": 100.0,
      "PercentSampling": 100.0,
      "PerformedProcedureStepStartTime": "201929.639000",
      "PhotometricInterpretation": "MONOCHROME2",
      "PixelBandwidth": 1985.0,
      "PixelRepresentation": 0,
      "PixelSpacing": [3.0, 3.0],
      "PregnancyStatus": 4,
      "ProcedureCodeSequence": [
        {
          "CodeMeaning": "MRI BRAIN WITHOUT IV CONTRAST",
          "CodeValue": "IMG269",
          "CodingSchemeDesignator": "L"
        }
],
      "ProtocolName": "TASK_AB",
      "RepetitionTime": 2500.0,
      "RequestAttributesSequence": [
        {
          "RequestedProcedureID": "293873043",
          "ScheduledProcedureStepDescription": "MRI BRAIN WITHOUT IV CONTRAST",
          "ScheduledProcedureStepID": "E9004129",
          "ScheduledProtocolCodeSequence": [
            {
              "CodeMeaning": "MRI BRAIN WITHOUT IV CONTRAST",
              "CodeValue": "651061",
              "CodingSchemeDesignator": "L"
            }
]
        }
],
      "RequestedProcedureCodeSequence": [
        {
          "CodeMeaning": "MRI BRAIN WITHOUT IV CONTRAST",
          "CodeValue": "IMG269",
          "CodingSchemeDesignator": "L"
        }
],
      "Rows": 504,
      "SAR": 0.10913005523076,
      "SamplesPerPixel": 1,
      "ScanOptions": "FS",
      "ScanningSequence": "EP",
      "SequenceName": "*epfid2d1_72",
      "SequenceVariant": "SK",
      "SeriesDescription": "TASK_AB",
      "SeriesNumber": 10,
      "SeriesTime": "204057.987000",
      "SliceLocation": -41.074587837441,
      "SliceThickness": 3.0,
      "SmallestImagePixelValue": 0,
      "SmokingStatus": "UNKNOWN",
      "SoftwareVersions": "syngo MR E11",
      "SpacingBetweenSlices": 3.0000000905554,
      "SpecificCharacterSet": "ISO_IR 100",
      "StudyID": "293873043",
      "StudyTime": "201929.485000",
      "TransmitCoilName": "Body",
      "VariableFlipAngleFlag": "N",
      "WindowCenterWidthExplanation": "Algo1",
      "dBdt": 0.0},
    "slices": {}
  },
  "time": {
    "samples": {
      "AcquisitionNumber": [1, 2, 3, 4, 5, 6, 7, 8, 9, 10, 11, 12, 13, 14, 15, 16, 17, 18, 19, 20, 21, 22, 23, 24, 25, 26, 27, 28, 29, 30, 31, 32, 33, 34, 35, 36, 37, 38, 39, 40, 41, 42, 43, 44, 45, 46, 47, 48, 49, 50, 51, 52, 53, 54, 55, 56, 57, 58, 59, 60, 61, 62, 63, 64, 65, 66, 67, 68, 69, 70, 71, 72, 73, 74, 75, 76, 77, 78, 79, 80, 81, 82, 83, 84, 85, 86, 87, 88, 89, 90, 91, 92, 93, 94, 95, 96, 97, 98, 99, 100, 101, 102, 103, 104, 105, 106, 107, 108, 109, 110, 111, 112, 113, 114, 115, 116, 117, 118, 119, 120, 121, 122, 123, 124, 125, 126, 127, 128, 129, 130, 131, 132],
      "AcquisitionTime": ["204027.917500", "204030.417500", "204032.917500", "204035.417500", "204037.917500", "204040.417500", "204042.917500", "204045.417500", "204047.917500", "204050.417500", "204052.917500", "204055.417500", "204057.917500", "204100.417500", "204102.917500", "204105.417500", "204107.917500", "204110.417500", "204112.917500", "204115.417500", "204117.917500", "204120.417500", "204122.917500", "204125.417500", "204127.917500", "204130.417500", "204132.917500", "204135.417500", "204137.917500", "204140.417500", "204142.917500", "204145.417500", "204147.917500", "204150.417500", "204152.917500", "204155.417500", "204157.917500", "204200.417500", "204202.917500", "204205.417500", "204207.917500", "204210.417500", "204212.917500", "204215.417500", "204217.917500", "204220.417500", "204222.917500", "204225.417500", "204227.917500", "204230.417500", "204232.917500", "204235.417500", "204237.917500", "204240.417500", "204242.917500", "204245.417500", "204247.917500", "204250.417500", "204252.917500", "204255.417500", "204257.917500", "204300.417500", "204302.917500", "204305.417500", "204307.917500", "204310.417500", "204312.917500", "204315.417500", "204317.917500", "204320.417500", "204322.917500", "204325.417500", "204327.917500", "204330.417500", "204332.917500", "204335.417500", "204337.917500", "204340.417500", "204342.917500", "204345.417500", "204347.917500", "204350.417500", "204352.917500", "204355.417500", "204357.917500", "204400.417500", "204402.917500", "204405.417500", "204407.917500", "204410.417500", "204412.917500", "204415.417500", "204417.917500", "204420.417500", "204422.917500", "204425.417500", "204427.917500", "204430.417500", "204432.917500", "204435.417500", "204437.917500", "204440.417500", "204442.917500", "204445.417500", "204447.917500", "204450.417500", "204452.917500", "204455.417500", "204457.917500", "204500.417500", "204502.917500", "204505.417500", "204507.917500", "204510.417500", "204512.917500", "204515.417500", "204517.917500", "204520.417500", "204522.917500", "204525.417500", "204527.917500", "204530.417500", "204532.917500", "204535.417500", "204537.917500", "204540.417500", "204542.917500", "204545.417500", "204547.917500", "204550.417500", "204552.917500", "204555.417500"],
      "ContentTime": ["204057.991000", "204057.995000", "204057.997000", "204058.006000", "204058.009000", "204058.011000", "204058.014000", "204058.017000", "204058.019000", "204058.022000", "204058.025000", "204058.027000", "204157.986000", "204157.989000", "204157.991000", "204157.994000", "204157.997000", "204158.000000", "204158.003000", "204158.006000", "204158.008000", "204158.011000", "204158.014000", "204158.016000", "204158.037000", "204158.040000", "204158.043000", "204158.045000", "204158.048000", "204158.051000", "204158.053000", "204158.056000", "204158.059000", "204158.080000", "204158.082000", "204158.085000", "204257.986000", "204257.989000", "204257.992000", "204257.994000", "204258.004000", "204258.006000", "204258.009000", "204258.012000", "204258.014000", "204258.017000", "204258.020000", "204258.022000", "204258.025000", "204258.028000", "204258.030000", "204258.033000", "204258.036000", "204258.038000", "204258.041000", "204258.044000", "204258.046000", "204258.049000", "204258.052000", "204258.054000", "204357.986000", "204357.989000", "204357.991000", "204357.994000", "204357.997000", "204358.001000", "204358.003000", "204358.006000", "204358.008000", "204358.011000", "204358.014000", "204358.017000", "204358.019000", "204358.027000", "204358.029000", "204358.032000", "204358.035000", "204358.038000", "204358.040000", "204358.043000", "204358.046000", "204358.048000", "204358.051000", "204358.054000", "204457.986000", "204457.989000", "204457.992000", "204457.994000", "204457.997000", "204458.001000", "204458.003000", "204458.006000", "204458.009000", "204458.012000", "204458.014000", "204458.017000", "204458.019000", "204458.022000", "204458.025000", "204458.028000", "204458.030000", "204458.033000", "204458.036000", "204458.038000", "204458.050000", "204458.052000", "204458.055000", "204458.058000", "204557.448000", "204557.451000", "204557.454000", "204557.457000", "204557.460000", "204557.463000", "204557.465000", "204557.468000", "204557.470000", "204557.473000", "204557.476000", "204557.487000", "204557.490000", "204557.494000", "204557.497000", "204557.500000", "204557.507000", "204557.512000", "204557.515000", "204557.518000", "204557.522000", "204557.526000", "204557.528000", "204557.531000"],
      "InstanceCreationTime": ["204057.991000", "204057.995000", "204057.997000", "204058.006000", "204058.009000", "204058.011000", "204058.014000", "204058.017000", "204058.019000", "204058.022000", "204058.025000", "204058.027000", "204157.986000", "204157.989000", "204157.991000", "204157.994000", "204157.997000", "204158.000000", "204158.003000", "204158.006000", "204158.008000", "204158.011000", "204158.014000", "204158.016000", "204158.037000", "204158.040000", "204158.043000", "204158.045000", "204158.048000", "204158.051000", "204158.053000", "204158.056000", "204158.059000", "204158.080000", "204158.082000", "204158.085000", "204257.986000", "204257.989000", "204257.992000", "204257.994000", "204258.004000", "204258.006000", "204258.009000", "204258.012000", "204258.014000", "204258.017000", "204258.020000", "204258.022000", "204258.025000", "204258.028000", "204258.030000", "204258.033000", "204258.036000", "204258.038000", "204258.041000", "204258.044000", "204258.046000", "204258.049000", "204258.052000", "204258.054000", "204357.986000", "204357.989000", "204357.991000", "204357.994000", "204357.997000", "204358.001000", "204358.003000", "204358.006000", "204358.008000", "204358.011000", "204358.014000", "204358.017000", "204358.019000", "204358.027000", "204358.029000", "204358.032000", "204358.035000", "204358.038000", "204358.040000", "204358.043000", "204358.046000", "204358.048000", "204358.051000", "204358.054000", "204457.986000", "204457.989000", "204457.992000", "204457.994000", "204457.997000", "204458.001000", "204458.003000", "204458.006000", "204458.009000", "204458.012000", "204458.014000", "204458.017000", "204458.019000", "204458.022000", "204458.025000", "204458.028000", "204458.030000", "204458.033000", "204458.036000", "204458.038000", "204458.050000", "204458.052000", "204458.055000", "204458.058000", "204557.448000", "204557.451000", "204557.454000", "204557.457000", "204557.460000", "204557.463000", "204557.465000", "204557.468000", "204557.470000", "204557.473000", "204557.476000", "204557.487000", "204557.490000", "204557.494000", "204557.497000", "204557.500000", "204557.507000", "204557.512000", "204557.515000", "204557.518000", "204557.522000", "204557.526000", "204557.528000", "204557.531000"],
      "InstanceNumber": [1, 2, 3, 4, 5, 6, 7, 8, 9, 10, 11, 12, 13, 14, 15, 16, 17, 18, 19, 20, 21, 22, 23, 24, 25, 26, 27, 28, 29, 30, 31, 32, 33, 34, 35, 36, 37, 38, 39, 40, 41, 42, 43, 44, 45, 46, 47, 48, 49, 50, 51, 52, 53, 54, 55, 56, 57, 58, 59, 60, 61, 62, 63, 64, 65, 66, 67, 68, 69, 70, 71, 72, 73, 74, 75, 76, 77, 78, 79, 80, 81, 82, 83, 84, 85, 86, 87, 88, 89, 90, 91, 92, 93, 94, 95, 96, 97, 98, 99, 100, 101, 102, 103, 104, 105, 106, 107, 108, 109, 110, 111, 112, 113, 114, 115, 116, 117, 118, 119, 120, 121, 122, 123, 124, 125, 126, 127, 128, 129, 130, 131, 132],
      "LargestImagePixelValue": [1766, 1799, 1673, 1667, 1660, 1652, 1652, 1640, 1655, 1740, 1707, 1653, 1643, 1668, 1643, 1669, 1643, 1637, 1646, 1739, 1675, 1674, 1632, 1635, 1634, 1640, 1647, 1642, 1644, 1637, 1632, 1631, 1711, 1695, 1673, 1745, 1702, 1642, 1631, 1628, 1622, 1651, 1683, 1644, 1690, 1638, 1641, 1705, 1688, 1664, 1715, 1692, 1633, 1634, 1634, 1635, 1696, 1676, 1716, 1740, 1637, 1640, 1637, 1715, 1681, 1648, 1648, 1732, 1705, 1740, 1690, 1652, 1626, 1716, 1632, 1643, 1621, 1630, 1628, 1645, 1698, 1640, 1680, 1649, 1663, 1638, 1640, 1650, 1654, 1659, 1639, 1643, 1636, 1636, 1640, 1643, 1638, 1696, 1695, 1668, 1653, 1664, 1642, 1646, 1671, 1721, 1730, 1705, 1726, 1744, 1631, 1634, 1641, 1676, 1643, 1636, 1632, 1645, 1740, 1682, 1655, 1670, 1693, 1726, 1713, 1666, 1704, 1717, 1672, 1643, 1666, 1734],
      "WindowCenter": [666.0, 664.0, 662.0, 662.0, 663.0, 663.0, 663.0, 662.0, 663.0, 664.0, 663.0, 663.0, 663.0, 663.0, 664.0, 664.0, 664.0, 664.0, 664.0, 664.0, 663.0, 663.0, 663.0, 663.0, 663.0, 663.0, 663.0, 663.0, 663.0, 663.0, 662.0, 662.0, 663.0, 663.0, 663.0, 664.0, 664.0, 663.0, 664.0, 663.0, 663.0, 664.0, 664.0, 664.0, 664.0, 663.0, 663.0, 662.0, 662.0, 662.0, 663.0, 663.0, 663.0, 663.0, 663.0, 663.0, 664.0, 664.0, 664.0, 664.0, 663.0, 662.0, 662.0, 663.0, 663.0, 662.0, 662.0, 663.0, 662.0, 663.0, 662.0, 662.0, 663.0, 663.0, 662.0, 663.0, 663.0, 663.0, 663.0, 664.0, 664.0, 664.0, 663.0, 662.0, 661.0, 662.0, 662.0, 662.0, 662.0, 662.0, 663.0, 663.0, 663.0, 663.0, 664.0, 664.0, 663.0, 663.0, 662.0, 662.0, 663.0, 663.0, 663.0, 663.0, 664.0, 664.0, 664.0, 663.0, 664.0, 664.0, 663.0, 662.0, 662.0, 662.0, 662.0, 662.0, 663.0, 664.0, 664.0, 663.0, 663.0, 663.0, 663.0, 663.0, 663.0, 663.0, 664.0, 664.0, 663.0, 662.0, 663.0, 663.0],
      "WindowWidth": [1423.0, 1417.0, 1413.0, 1413.0, 1414.0, 1414.0, 1414.0, 1413.0, 1414.0, 1417.0, 1416.0, 1415.0, 1416.0, 1416.0, 1416.0, 1417.0, 1416.0, 1416.0, 1416.0, 1417.0, 1416.0, 1415.0, 1414.0, 1414.0, 1414.0, 1415.0, 1414.0, 1414.0, 1415.0, 1414.0, 1413.0, 1413.0, 1416.0, 1416.0, 1415.0, 1416.0, 1416.0, 1416.0, 1417.0, 1416.0, 1416.0, 1418.0, 1418.0, 1416.0, 1417.0, 1415.0, 1415.0, 1413.0, 1413.0, 1413.0, 1415.0, 1415.0, 1414.0, 1414.0, 1415.0, 1416.0, 1417.0, 1417.0, 1418.0, 1418.0, 1415.0, 1412.0, 1413.0, 1415.0, 1414.0, 1413.0, 1412.0, 1414.0, 1413.0, 1415.0, 1413.0, 1414.0, 1414.0, 1416.0, 1412.0, 1414.0, 1415.0, 1416.0, 1416.0, 1417.0, 1418.0, 1416.0, 1415.0, 1411.0, 1411.0, 1412.0, 1412.0, 1413.0, 1412.0, 1413.0, 1414.0, 1415.0, 1414.0, 1414.0, 1417.0, 1417.0, 1416.0, 1415.0, 1413.0, 1413.0, 1415.0, 1415.0, 1415.0, 1415.0, 1416.0, 1417.0, 1417.0, 1416.0, 1416.0, 1416.0, 1414.0, 1411.0, 1412.0, 1413.0, 1413.0, 1413.0, 1415.0, 1417.0, 1418.0, 1415.0, 1414.0, 1415.0, 1414.0, 1415.0, 1415.0, 1416.0, 1417.0, 1417.0, 1415.0, 1413.0, 1414.0, 1416.0]
    },
    "slices": {}
  }
}