{
  "AcquisitionMatrixPE": 72,
  "AcquisitionNumber": 1,
  "AcquisitionTime": "20:46:28.352500",
  "BandwidthPerPixelPhaseEncode": 24.366,
  "BaseResolution": 72,
  "BodyPartExamined": "BRAIN",
  "CoilCombinationMethod": "Sum of Squares",
  "ConsistencyInfo": "N4_VE11C_LATEST_20160120",
  "ConversionSoftware": "dcm2niix",
  "ConversionSoftwareVersion": "v1.0.20220720",
  "DerivedVendorReportedEchoSpacing": 0.000570011,
  "DeviceSerialNumber": "45219",
  "DwellTime": 3.5e-06,
  "EchoTime": 0.03,
  "EchoTrainLength": 72,
  "EffectiveEchoSpacing": 0.000570011,
  "FlipAngle": 80,
  "HeudiconvVersion": "1.1.6",
  "ImageComments": "Reference volume for motion correction.",
  "ImageOrientationPatientDICOM": [1, 0, 0, 0, 0.995562, 0.0941083],
  "ImageOrientationText": "Tra>Cor(5.4)",
  "ImageType": [
    "ORIGINAL",
    "PRIMARY",
    "M",
    "ND",
    "NORM",
    "MOCO",
    "MOSAIC"
],
  "ImagingFrequency": 123.182,
  "InPlanePhaseEncodingDirectionDICOM": "COL",
  "InstitutionAddress": "First Avenue 660,New York,NYC,US,10016",
  "InstitutionName": "NYU LANGONE CBI",
  "InstitutionalDepartmentName": "Department",
  "MRAcquisitionType": "2D",
  "MagneticFieldStrength": 3,
  "Manufacturer": "Siemens",
  "ManufacturersModelName": "Skyra",
  "MatrixCoilMode": "SENSE",
  "Modality": "MR",
  "NonlinearGradientCorrection": false,
  "PartialFourier": 1,
  "PatientPosition": "HFS",
  "PercentPhaseFOV": 100,
  "PercentSampling": 100,
  "PhaseEncodingDirection": "j-",
  "PhaseEncodingSteps": 72,
  "PhaseResolution": 1,
  "PixelBandwidth": 1985,
  "ProcedureStepDescription": "MRI BRAIN WITHOUT IV CONTRAST",
  "ProtocolName": "TASK_CD_MoCo",
  "PulseSequenceDetails": "%SiemensSeq%\\ep2d_bold",
  "ReceiveCoilActiveElements": "HE1-4",
  "ReceiveCoilName": "HeadNeck_20",
  "ReconMatrixPE": 72,
  "RepetitionTime": 2.5,
  "SAR": 0.10913,
  "ScanOptions": "FS",
  "ScanningSequence": "EP",
  "SequenceName": "*epfid2d1_72",
  "SequenceVariant": "SK",
  "SeriesDescription": "MoCoSeries",
  "SeriesNumber": 13,
  "ShimSetting": [-903, -7025, 5036, 239, -206, 418, 502, -213],
  "SliceThickness": 3,
  "SliceTiming": [1.24, 0, 1.3075, 0.0675, 1.3725, 0.1325, 1.4375, 0.1975, 1.5025, 0.2625, 1.5675, 0.3275, 1.6325, 0.3925, 1.6975, 0.4575, 1.7625, 0.5225, 1.8275, 0.5875, 1.8925, 0.655, 1.96, 0.72, 2.025, 0.785, 2.09, 0.85, 2.155, 0.915, 2.22, 0.98, 2.285, 1.045, 2.35, 1.11, 2.415, 1.175],
  "SoftwareVersions": "syngo MR E11",
  "SpacingBetweenSlices": 3,
  "StationName": "MRC45219",
  "TaskName": "cd",
  "TotalReadoutTime": 0.0404708,
  "TxRefAmp": 406.508,
  "dcmmeta_affine": [
    [-3.0, 0.0, 0.0, 108.0],
    [0.0, 2.9866859912872314, 0.28232496976852417, -112.11309814453125],
    [0.0, -0.28232496976852417, 2.9866859912872314, -30.659881591796875],
    [0.0, 0.0, 0.0, 1.0]
],
  "dcmmeta_reorient_transform": [
    [0.0, -1.0, 0.0, 71.0],
    [1.0, 0.0, 0.0, 0.0],
    [0.0, 0.0, 1.0, 0.0],
    [0.0, 0.0, 0.0, 1.0]
],
  "dcmmeta_shape": [72, 72, 38, 132],
  "dcmmeta_slice_dim": 2,
  "dcmmeta_version": 0.6,
  "global": {
    "const": {
      "AcquisitionMatrix": [72, 0, 0, 72],
      "AngioFlag": "N",
      "BitsAllocated": 16,
      "BitsStored": 12,
      "BodyPartExamined": "BRAIN",
      "Columns": 504,
      "CountryOfResidence": "United States of America [1]",
      "EchoNumbers": 1,
      "EchoTime": 30.0,
      "EchoTrainLength": 72,
      "FlipAngle": 80.0,
      "HighBit": 11,
      "ImageOrientationPatient": [1.0, 0.0, 0.0, 0.0, 0.99556196389853, 0.09410832077188],
      "ImagePositionPatient": [-756.0, -745.06575458888, -111.68714645447],
      "ImageType": [
        "ORIGINAL",
        "PRIMARY",
        "M",
        "ND",
        "NORM",
        "MOCO",
        "MOSAIC"
],
      "ImagedNucleus": "1H",
      "ImagingFrequency": 123.18225,
      "InPlanePhaseEncodingDirection": "COL",
      "MRAcquisitionType": "2D",
      "MagneticFieldStrength": 3.0,
      "Manufacturer": "SIEMENS",
      "ManufacturerModelName": "Skyra",
      "Modality": "MR",
      "NumberOfAverages": 1.0,
      "NumberOfPhaseEncodingSteps": 72,
      "PercentPhaseFieldOfView": 100.0,
      "PercentSampling": 100.0,
      "PerformedProcedureStepStartTime": "201929.639000",
      "PhotometricInterpretation": "MONOCHROME2",
      "PixelBandwidth": 1985.0,
      "PixelRepresentation": 0,
      "PixelSpacing": [3.0, 3.0],
      "PregnancyStatus": 4,
      "ProcedureCodeSequence": [
        {
          "CodeMeaning": "MRI BRAIN WITHOUT IV CONTRAST",
          "CodeValue": "IMG269",
          "CodingSchemeDesignator": "L"
        }
],
      "ProtocolName": "TASK_CD",
      "RepetitionTime": 2500.0,
      "RequestAttributesSequence": [
        {
          "RequestedProcedureID": "293873043",
          "ScheduledProcedureStepDescription": "MRI BRAIN WITHOUT IV CONTRAST",
          "ScheduledProcedureStepID": "E9004129",
          "ScheduledProtocolCodeSequence": [
            {
              "CodeMeaning": "MRI BRAIN WITHOUT IV CONTRAST",
              "CodeValue": "651061",
              "CodingSchemeDesignator": "L"
            }
]
        }
],
      "RequestedProcedureCodeSequence": [
        {
          "CodeMeaning": "MRI BRAIN WITHOUT IV CONTRAST",
          "CodeValue": "IMG269",
          "CodingSchemeDesignator": "L"
        }
],
      "Rows": 504,
      "SAR": 0.10913005523076,
      "SamplesPerPixel": 1,
      "ScanOptions": "FS",
      "ScanningSequence": "EP",
      "SequenceName": "*epfid2d1_72",
      "SequenceVariant": "SK",
      "SeriesDescription": "MoCoSeries",
      "SeriesNumber": 13,
      "SeriesTime": "204735.906000",
      "SliceLocation": -41.074587837441,
      "SliceThickness": 3.0,
      "SmallestImagePixelValue": 0,
      "SmokingStatus": "UNKNOWN",
      "SoftwareVersions": "syngo MR E11",
      "SpacingBetweenSlices": 3.0000000905554,
      "SpecificCharacterSet": "ISO_IR 100",
      "StudyID": "293873043",
      "StudyTime": "201929.485000",
      "TransmitCoilName": "Body",
      "VariableFlipAngleFlag": "N",
      "WindowCenterWidthExplanation": "Algo1",
      "dBdt": 0.0},
    "slices": {}
  },
  "time": {
    "samples": {
      "AcquisitionNumber": [1, 2, 3, 4, 5, 6, 7, 8, 9, 10, 11, 12, 13, 14, 15, 16, 17, 18, 19, 20, 21, 22, 23, 24, 25, 26, 27, 28, 29, 30, 31, 32, 33, 34, 35, 36, 37, 38, 39, 40, 41, 42, 43, 44, 45, 46, 47, 48, 49, 50, 51, 52, 53, 54, 55, 56, 57, 58, 59, 60, 61, 62, 63, 64, 65, 66, 67, 68, 69, 70, 71, 72, 73, 74, 75, 76, 77, 78, 79, 80, 81, 82, 83, 84, 85, 86, 87, 88, 89, 90, 91, 92, 93, 94, 95, 96, 97, 98, 99, 100, 101, 102, 103, 104, 105, 106, 107, 108, 109, 110, 111, 112, 113, 114, 115, 116, 117, 118, 119, 120, 121, 122, 123, 124, 125, 126, 127, 128, 129, 130, 131, 132],
      "AcquisitionTime": ["204628.352500", "204630.852500", "204633.352500", "204635.852500", "204638.352500", "204640.852500", "204643.352500", "204645.852500", "204648.352500", "204650.852500", "204653.352500", "204655.852500", "204658.352500", "204700.852500", "204703.352500", "204705.852500", "204708.352500", "204710.852500", "204713.352500", "204715.852500", "204718.352500", "204720.852500", "204723.352500", "204725.852500", "204728.352500", "204730.852500", "204733.352500", "204735.852500", "204738.352500", "204740.852500", "204743.352500", "204745.852500", "204748.352500", "204750.852500", "204753.352500", "204755.852500", "204758.352500", "204800.852500", "204803.352500", "204805.852500", "204808.352500", "204810.852500", "204813.352500", "204815.852500", "204818.352500", "204820.852500", "204823.352500", "204825.852500", "204828.352500", "204830.852500", "204833.352500", "204835.852500", "204838.352500", "204840.852500", "204843.352500", "204845.852500", "204848.352500", "204850.852500", "204853.352500", "204855.852500", "204858.352500", "204900.852500", "204903.352500", "204905.852500", "204908.352500", "204910.852500", "204913.352500", "204915.852500", "204918.352500", "204920.852500", "204923.352500", "204925.852500", "204928.352500", "204930.852500", "204933.352500", "204935.852500", "204938.352500", "204940.852500", "204943.352500", "204945.852500", "204948.352500", "204950.852500", "204953.352500", "204955.852500", "204958.352500", "205000.852500", "205003.352500", "205005.852500", "205008.352500", "205010.852500", "205013.352500", "205015.852500", "205018.352500", "205020.852500", "205023.352500", "205025.852500", "205028.352500", "205030.852500", "205033.352500", "205035.852500", "205038.352500", "205040.852500", "205043.352500", "205045.852500", "205048.352500", "205050.852500", "205053.352500", "205055.852500", "205058.352500", "205100.852500", "205103.352500", "205105.852500", "205108.352500", "205110.852500", "205113.352500", "205115.852500", "205118.352500", "205120.852500", "205123.352500", "205125.852500", "205128.352500", "205130.852500", "205133.352500", "205135.852500", "205138.352500", "205140.852500", "205143.352500", "205145.852500", "205148.352500", "205150.852500", "205153.352500", "205155.852500"],
      "ContentTime": ["204735.908000", "204735.911000", "204735.914000", "204735.917000", "204735.920000", "204735.922000", "204735.931000", "204735.934000", "204735.937000", "204735.939000", "204735.942000", "204735.945000", "204735.948000", "204735.950000", "204735.953000", "204735.956000", "204735.959000", "204735.962000", "204735.964000", "204735.967000", "204735.970000", "204735.973000", "204735.975000", "204735.978000", "204735.981000", "204735.984000", "204735.986000", "204835.894000", "204835.897000", "204835.899000", "204835.902000", "204835.905000", "204835.908000", "204835.910000", "204835.913000", "204835.916000", "204835.919000", "204835.921000", "204835.924000", "204835.927000", "204835.930000", "204835.932000", "204835.935000", "204835.938000", "204835.941000", "204835.944000", "204835.946000", "204835.949000", "204835.952000", "204835.955000", "204835.957000", "204935.904000", "204935.907000", "204935.910000", "204935.912000", "204935.915000", "204935.918000", "204935.921000", "204935.923000", "204935.926000", "204935.929000", "204935.932000", "204935.934000", "204935.937000", "204935.940000", "204935.943000", "204935.945000", "204935.948000", "204935.951000", "204935.954000", "204935.956000", "204935.959000", "204935.962000", "204935.965000", "204935.967000", "205035.889000", "205035.892000", "205035.894000", "205035.897000", "205035.900000", "205035.903000", "205035.905000", "205035.908000", "205035.911000", "205035.914000", "205035.917000", "205035.919000", "205035.922000", "205035.925000", "205035.928000", "205035.930000", "205035.933000", "205035.936000", "205035.939000", "205035.941000", "205035.944000", "205035.947000", "205035.950000", "205035.952000", "205055.867000", "205055.870000", "205055.872000", "205055.875000", "205055.878000", "205055.881000", "205055.883000", "205055.886000", "205155.896000", "205155.899000", "205155.902000", "205155.905000", "205155.908000", "205155.911000", "205155.913000", "205155.916000", "205155.919000", "205155.922000", "205155.924000", "205155.927000", "205155.930000", "205155.933000", "205155.936000", "205155.938000", "205155.941000", "205155.944000", "205155.947000", "205155.949000", "205155.952000", "205155.955000", "205155.958000", "205155.960000", "205157.707000"],
      "InstanceCreationTime": ["204735.908000", "204735.911000", "204735.914000", "204735.917000", "204735.920000", "204735.922000", "204735.931000", "204735.934000", "204735.937000", "204735.939000", "204735.942000", "204735.945000", "204735.948000", "204735.950000", "204735.953000", "204735.956000", "204735.959000", "204735.962000", "204735.964000", "204735.967000", "204735.970000", "204735.973000", "204735.975000", "204735.978000", "204735.981000", "204735.984000", "204735.986000", "204835.894000", "204835.897000", "204835.899000", "204835.902000", "204835.905000", "204835.908000", "204835.910000", "204835.913000", "204835.916000", "204835.919000", "204835.921000", "204835.924000", "204835.927000", "204835.930000", "204835.932000", "204835.935000", "204835.938000", "204835.941000", "204835.944000", "204835.946000", "204835.949000", "204835.952000", "204835.955000", "204835.957000", "204935.904000", "204935.907000", "204935.910000", "204935.912000", "204935.915000", "204935.918000", "204935.921000", "204935.923000", "204935.926000", "204935.929000", "204935.932000", "204935.934000", "204935.937000", "204935.940000", "204935.943000", "204935.945000", "204935.948000", "204935.951000", "204935.954000", "204935.956000", "204935.959000", "204935.962000", "204935.965000", "204935.967000", "205035.889000", "205035.892000", "205035.894000", "205035.897000", "205035.900000", "205035.903000", "205035.905000", "205035.908000", "205035.911000", "205035.914000", "205035.917000", "205035.919000", "205035.922000", "205035.925000", "205035.928000", "205035.930000", "205035.933000", "205035.936000", "205035.939000", "205035.941000", "205035.944000", "205035.947000", "205035.950000", "205035.952000", "205055.867000", "205055.870000", "205055.872000", "205055.875000", "205055.878000", "205055.881000", "205055.883000", "205055.886000", "205155.896000", "205155.899000", "205155.902000", "205155.905000", "205155.908000", "205155.911000", "205155.913000", "205155.916000", "205155.919000", "205155.922000", "205155.924000", "205155.927000", "205155.930000", "205155.933000", "205155.936000", "205155.938000", "205155.941000", "205155.944000", "205155.947000", "205155.949000", "205155.952000", "205155.955000", "205155.958000", "205155.960000", "205157.707000"],
      "InstanceNumber": [1, 2, 3, 4, 5, 6, 7, 8, 9, 10, 11, 12, 13, 14, 15, 16, 17, 18, 19, 20, 21, 22, 23, 24, 25, 26, 27, 28, 29, 30, 31, 32, 33, 34, 35, 36, 37, 38, 39, 40, 41, 42, 43, 44, 45, 46, 47, 48, 49, 50, 51, 52, 53, 54, 55, 56, 57, 58, 59, 60, 61, 62, 63, 64, 65, 66, 67, 68, 69, 70, 71, 72, 73, 74, 75, 76, 77, 78, 79, 80, 81, 82, 83, 84, 85, 86, 87, 88, 89, 90, 91, 92, 93, 94, 95, 96, 97, 98, 99, 100, 101, 102, 103, 104, 105, 106, 107, 108, 109, 110, 111, 112, 113, 114, 115, 116, 117, 118, 119, 120, 121, 122, 123, 124, 125, 126, 127, 128, 129, 130, 131, 132],
      "LargestImagePixelValue": [1749, 1705, 1688, 1674, 1639, 1644, 1655, 1729, 1646, 1691, 1647, 1744, 1670, 1668, 1673, 1712, 1659, 1711, 1656, 1778, 1714, 1725, 1662, 1735, 1688, 1665, 1666, 1649, 1660, 1679, 1672, 1665, 1659, 1659, 1668, 1684, 1653, 1651, 1643, 1688, 1724, 1650, 1649, 1677, 1653, 1716, 1736, 1672, 1658, 1655, 1704, 1686, 1638, 1618, 1630, 1632, 1675, 1656, 1629, 1633, 1661, 1658, 1685, 1645, 1695, 1720, 1660, 1634, 1664, 1640, 1627, 1624, 1650, 1679, 1696, 1658, 1720, 1687, 1735, 1731, 1729, 1722, 1695, 1648, 1679, 1657, 1686, 1626, 1623, 1672, 1674, 1663, 1696, 1718, 1638, 1674, 1708, 1688, 1657, 1679, 1661, 1630, 1626, 1635, 1629, 1649, 1620, 1623, 1629, 1628, 1631, 1697, 1663, 1657, 1629, 1640, 1728, 1669, 1650, 1661, 1678, 1685, 1672, 1624, 1651, 1660, 1700, 1654, 1630, 1628, 1626, 1624],
      "WindowCenter": [665.0, 663.0, 663.0, 662.0, 662.0, 663.0, 663.0, 663.0, 663.0, 663.0, 662.0, 663.0, 664.0, 664.0, 664.0, 664.0, 663.0, 663.0, 663.0, 664.0, 664.0, 664.0, 663.0, 664.0, 664.0, 663.0, 663.0, 663.0, 663.0, 663.0, 663.0, 663.0, 662.0, 662.0, 662.0, 662.0, 662.0, 662.0, 663.0, 664.0, 663.0, 663.0, 663.0, 663.0, 663.0, 663.0, 664.0, 663.0, 663.0, 662.0, 664.0, 664.0, 662.0, 662.0, 663.0, 663.0, 663.0, 663.0, 663.0, 664.0, 664.0, 664.0, 663.0, 663.0, 664.0, 663.0, 663.0, 662.0, 662.0, 662.0, 662.0, 662.0, 662.0, 663.0, 663.0, 663.0, 663.0, 663.0, 663.0, 663.0, 663.0, 664.0, 664.0, 663.0, 663.0, 663.0, 663.0, 662.0, 662.0, 663.0, 663.0, 662.0, 663.0, 663.0, 662.0, 662.0, 662.0, 662.0, 662.0, 662.0, 663.0, 663.0, 663.0, 663.0, 663.0, 663.0, 663.0, 663.0, 663.0, 663.0, 663.0, 663.0, 663.0, 662.0, 662.0, 662.0, 663.0, 662.0, 662.0, 662.0, 662.0, 662.0, 662.0, 662.0, 663.0, 663.0, 664.0, 664.0, 662.0, 661.0, 661.0, 662.0],
      "WindowWidth": [1422.0, 1416.0, 1414.0, 1413.0, 1413.0, 1415.0, 1415.0, 1414.0, 1415.0, 1415.0, 1413.0, 1416.0, 1416.0, 1417.0, 1416.0, 1416.0, 1415.0, 1414.0, 1414.0, 1416.0, 1418.0, 1416.0, 1415.0, 1417.0, 1416.0, 1415.0, 1415.0, 1415.0, 1415.0, 1415.0, 1415.0, 1414.0, 1413.0, 1413.0, 1412.0, 1412.0, 1413.0, 1413.0, 1414.0, 1416.0, 1416.0, 1415.0, 1415.0, 1416.0, 1414.0, 1415.0, 1416.0, 1414.0, 1414.0, 1414.0, 1416.0, 1416.0, 1414.0, 1413.0, 1414.0, 1414.0, 1414.0, 1414.0, 1414.0, 1416.0, 1416.0, 1416.0, 1415.0, 1414.0, 1416.0, 1415.0, 1414.0, 1413.0, 1413.0, 1412.0, 1412.0, 1412.0, 1413.0, 1414.0, 1415.0, 1415.0, 1416.0, 1414.0, 1415.0, 1415.0, 1415.0, 1417.0, 1416.0, 1414.0, 1415.0, 1416.0, 1414.0, 1411.0, 1412.0, 1414.0, 1413.0, 1412.0, 1414.0, 1414.0, 1412.0, 1411.0, 1412.0, 1412.0, 1412.0, 1413.0, 1415.0, 1414.0, 1414.0, 1414.0, 1415.0, 1415.0, 1415.0, 1415.0, 1414.0, 1414.0, 1414.0, 1415.0, 1413.0, 1413.0, 1411.0, 1413.0, 1415.0, 1413.0, 1411.0, 1412.0, 1412.0, 1412.0, 1413.0, 1413.0, 1414.0, 1414.0, 1417.0, 1416.0, 1413.0, 1410.0, 1410.0, 1412.0]
    },
    "slices": {}
  }
}