{
  "AcquisitionMatrixPE": 72,
  "AcquisitionNumber": 1,
  "AcquisitionTime": "19:33:12.675000",
  "BandwidthPerPixelPhaseEncode": 24.366,
  "BaseResolution": 72,
  "BodyPartExamined": "BRAIN",
  "CoilCombinationMethod": "Sum of Squares",
  "ConsistencyInfo": "N4_VE11C_LATEST_20160120",
  "ConversionSoftware": "dcm2niix",
  "ConversionSoftwareVersion": "v1.0.20220720",
  "DerivedVendorReportedEchoSpacing": 0.000570011,
  "DeviceSerialNumber": "45219",
  "DwellTime": 3.5e-06,
  "EchoTime": 0.03,
  "EchoTrainLength": 72,
  "EffectiveEchoSpacing": 0.000570011,
  "FlipAngle": 80,
  "HeudiconvVersion": "1.1.6",
  "ImageComments": "Reference volume for motion correction.",
  "ImageOrientationPatientDICOM": [0.999976, -0.00047481, -0.00696492, -9.19154e-09, 0.997684, -0.0680151],
  "ImageOrientationText": "Tra>Cor(-3.9)>Sag(-0.4)",
  "ImageType": [
    "ORIGINAL",
    "PRIMARY",
    "M",
    "ND",
    "NORM",
    "MOCO",
    "MOSAIC"
],
  "ImagingFrequency": 123.182,
  "InPlanePhaseEncodingDirectionDICOM": "COL",
  "InstitutionAddress": "First Avenue 660,New York,NYC,US,10016",
  "InstitutionName": "NYU LANGONE CBI",
  "InstitutionalDepartmentName": "Department",
  "MRAcquisitionType": "2D",
  "MagneticFieldStrength": 3,
  "Manufacturer": "Siemens",
  "ManufacturersModelName": "Skyra",
  "MatrixCoilMode": "SENSE",
  "Modality": "MR",
  "NonlinearGradientCorrection": false,
  "PartialFourier": 1,
  "PatientPosition": "HFS",
  "PercentPhaseFOV": 100,
  "PercentSampling": 100,
  "PhaseEncodingDirection": "j-",
  "PhaseEncodingSteps": 72,
  "PhaseResolution": 1,
  "PixelBandwidth": 1985,
  "ProcedureStepDescription": "MRI BRAIN WITHOUT IV CONTRAST",
  "ProtocolName": "REST_1_MoCo",
  "PulseSequenceDetails": "%SiemensSeq%\\ep2d_bold",
  "ReceiveCoilActiveElements": "HE1-4",
  "ReceiveCoilName": "HeadNeck_20",
  "ReconMatrixPE": 72,
  "RepetitionTime": 2.5,
  "SAR": 0.100072,
  "ScanOptions": "FS",
  "ScanningSequence": "EP",
  "SequenceName": "*epfid2d1_72",
  "SequenceVariant": "SK",
  "SeriesDescription": "MoCoSeries",
  "SeriesNumber": 7,
  "ShimSetting": [-874, -6971, 5003, 301, -166, -308, 381, -114],
  "SliceThickness": 3,
  "SliceTiming": [1.24, 0, 1.305, 0.065, 1.37, 0.13, 1.435, 0.195, 1.5, 0.26, 1.565, 0.325, 1.63, 0.39, 1.695, 0.455, 1.76, 0.52, 1.825, 0.5875, 1.8925, 0.6525, 1.9575, 0.7175, 2.0225, 0.7825, 2.0875, 0.8475, 2.1525, 0.9125, 2.2175, 0.9775, 2.2825, 1.0425, 2.3475, 1.1075, 2.4125, 1.1725],
  "SoftwareVersions": "syngo MR E11",
  "SpacingBetweenSlices": 3,
  "StationName": "MRC45219",
  "TaskName": "rest",
  "TotalReadoutTime": 0.0404708,
  "TxRefAmp": 446.594,
  "dcmmeta_affine": [
    [-2.999926805496216, -2.7574625249826568e-08, -0.02094326727092266, 108.38497924804688],
    [0.0014244313351809978, 2.9930529594421387, -0.20404039323329926, -102.22074890136719],
    [-0.020894771441817284, 0.2040453553199768, 2.9929800033569336, -62.035037994384766],
    [0.0, 0.0, 0.0, 1.0]
],
  "dcmmeta_reorient_transform": [
    [0.0, -1.0, 0.0, 71.0],
    [1.0, 0.0, 0.0, 0.0],
    [0.0, 0.0, 1.0, 0.0],
    [0.0, 0.0, 0.0, 1.0]
],
  "dcmmeta_shape": [72, 72, 38, 122],
  "dcmmeta_slice_dim": 2,
  "dcmmeta_version": 0.6,
  "global": {
    "const": {
      "AccessionNumber": "123344233",
      "AcquisitionMatrix": [72, 0, 0, 72],
      "AngioFlag": "N",
      "BitsAllocated": 16,
      "BitsStored": 12,
      "BodyPartExamined": "BRAIN",
      "Columns": 504,
      "CountryOfResidence": "United States of America [1]",
      "EchoNumbers": 1,
      "EchoTime": 30.0,
      "EchoTrainLength": 72,
      "FlipAngle": 80.0,
      "HighBit": 11,
      "ImageOrientationPatient": [0.99997563189919, -0.0004748104595, -0.0069649237507, -9.191542e-09, 0.99768429044056, -0.0680151204375],
      "ImagePositionPatient": [-756.36917768579, -756.47775085117, 1.0392530058712],
      "ImageType": [
        "ORIGINAL",
        "PRIMARY",
        "M",
        "ND",
        "NORM",
        "MOCO",
        "MOSAIC"
],
      "ImagedNucleus": "1H",
      "ImagingFrequency": 123.182088,
      "InPlanePhaseEncodingDirection": "COL",
      "MRAcquisitionType": "2D",
      "MagneticFieldStrength": 3.0,
      "Manufacturer": "SIEMENS",
      "ManufacturerModelName": "Skyra",
      "Modality": "MR",
      "NumberOfAverages": 1.0,
      "NumberOfPhaseEncodingSteps": 72,
      "PercentPhaseFieldOfView": 100.0,
      "PercentSampling": 100.0,
      "PerformedProcedureStepStartTime": "191717.650000",
      "PhotometricInterpretation": "MONOCHROME2",
      "PixelBandwidth": 1985.0,
      "PixelRepresentation": 0,
      "PixelSpacing": [3.0, 3.0],
      "PregnancyStatus": 4,
      "ProcedureCodeSequence": [
        {
          "CodeMeaning": "MRI BRAIN WITHOUT IV CONTRAST",
          "CodeValue": "IMG269",
          "CodingSchemeDesignator": "L"
        }
],
      "ProtocolName": "REST_1",
      "RepetitionTime": 2500.0,
      "RequestAttributesSequence": [
        {
          "RequestedProcedureID": "125739972",
          "ScheduledProcedureStepDescription": "MRI BRAIN WITHOUT IV CONTRAST",
          "ScheduledProcedureStepID": "E9534232",
          "ScheduledProtocolCodeSequence": [
            {
              "CodeMeaning": "MRI BRAIN WITHOUT IV CONTRAST",
              "CodeValue": "651061",
              "CodingSchemeDesignator": "L"
            }
]
        }
],
      "RequestedProcedureCodeSequence": [
        {
          "CodeMeaning": "MRI BRAIN WITHOUT IV CONTRAST",
          "CodeValue": "IMG269",
          "CodingSchemeDesignator": "L"
        }
],
      "Rows": 504,
      "SAR": 0.10007185710482,
      "SamplesPerPixel": 1,
      "ScanOptions": "FS",
      "ScanningSequence": "EP",
      "SequenceName": "*epfid2d1_72",
      "SequenceVariant": "SK",
      "SeriesDescription": "MoCoSeries",
      "SeriesNumber": 7,
      "SeriesTime": "193403.059000",
      "SliceLocation": -55.694131237152,
      "SliceThickness": 3.0,
      "SmallestImagePixelValue": 0,
      "SmokingStatus": "UNKNOWN",
      "SoftwareVersions": "syngo MR E11",
      "SpacingBetweenSlices": 2.9999999899635,
      "SpecificCharacterSet": "ISO_IR 100",
      "StudyID": "CM",
      "StudyTime": "191717.501000",
      "TransmitCoilName": "Body",
      "VariableFlipAngleFlag": "N",
      "WindowCenterWidthExplanation": "Algo1",
      "dBdt": 0.0},
    "slices": {}
  },
  "time": {
    "samples": {
      "AcquisitionNumber": [1, 2, 3, 4, 5, 6, 7, 8, 9, 10, 11, 12, 13, 14, 15, 16, 17, 18, 19, 20, 21, 22, 23, 24, 25, 26, 27, 28, 29, 30, 31, 32, 33, 34, 35, 36, 37, 38, 39, 40, 41, 42, 43, 44, 45, 46, 47, 48, 49, 50, 51, 52, 53, 54, 55, 56, 57, 58, 59, 60, 61, 62, 63, 64, 65, 66, 67, 68, 69, 70, 71, 72, 73, 74, 75, 76, 77, 78, 79, 80, 81, 82, 83, 84, 85, 86, 87, 88, 89, 90, 91, 92, 93, 94, 95, 96, 97, 98, 99, 100, 101, 102, 103, 104, 105, 106, 107, 108, 109, 110, 111, 112, 113, 114, 115, 116, 117, 118, 119, 120, 121, 122],
      "AcquisitionTime": ["193312.675000", "193315.175000", "193317.675000", "193320.175000", "193322.675000", "193325.175000", "193327.675000", "193330.175000", "193332.675000", "193335.175000", "193337.675000", "193340.175000", "193342.675000", "193345.175000", "193347.675000", "193350.175000", "193352.675000", "193355.175000", "193357.675000", "193400.175000", "193402.675000", "193405.175000", "193407.675000", "193410.175000", "193412.675000", "193415.175000", "193417.675000", "193420.175000", "193422.675000", "193425.175000", "193427.675000", "193430.175000", "193432.675000", "193435.175000", "193437.675000", "193440.175000", "193442.675000", "193445.175000", "193447.675000", "193450.175000", "193452.675000", "193455.175000", "193457.675000", "193500.175000", "193502.675000", "193505.175000", "193507.675000", "193510.175000", "193512.675000", "193515.175000", "193517.675000", "193520.175000", "193522.675000", "193525.175000", "193527.675000", "193530.175000", "193532.675000", "193535.175000", "193537.675000", "193540.175000", "193542.675000", "193545.175000", "193547.675000", "193550.175000", "193552.675000", "193555.175000", "193557.675000", "193600.175000", "193602.675000", "193605.175000", "193607.675000", "193610.175000", "193612.675000", "193615.175000", "193617.675000", "193620.175000", "193622.675000", "193625.175000", "193627.675000", "193630.175000", "193632.675000", "193635.175000", "193637.675000", "193640.175000", "193642.675000", "193645.175000", "193647.675000", "193650.175000", "193652.675000", "193655.175000", "193657.675000", "193700.175000", "193702.675000", "193705.175000", "193707.675000", "193710.175000", "193712.675000", "193715.175000", "193717.675000", "193720.175000", "193722.675000", "193725.175000", "193727.675000", "193730.175000", "193732.675000", "193735.175000", "193737.675000", "193740.175000", "193742.675000", "193745.175000", "193747.675000", "193750.175000", "193752.675000", "193755.175000", "193757.675000", "193800.175000", "193802.675000", "193805.175000", "193807.675000", "193810.175000", "193812.675000", "193815.175000"],
      "ContentTime": ["193403.061000", "193403.064000", "193403.066000", "193403.069000", "193403.072000", "193403.075000", "193403.077000", "193403.082000", "193403.085000", "193403.087000", "193403.090000", "193403.093000", "193403.096000", "193403.098000", "193403.101000", "193403.104000", "193403.106000", "193403.109000", "193403.112000", "193403.114000", "193503.030000", "193503.033000", "193503.036000", "193503.039000", "193503.041000", "193503.044000", "193503.047000", "193503.049000", "193503.052000", "193503.055000", "193503.057000", "193503.060000", "193503.063000", "193503.065000", "193503.068000", "193503.071000", "193503.073000", "193503.076000", "193503.079000", "193503.081000", "193503.084000", "193503.087000", "193503.089000", "193503.092000", "193603.037000", "193603.040000", "193603.043000", "193603.045000", "193603.048000", "193603.051000", "193603.054000", "193603.064000", "193603.067000", "193603.069000", "193603.072000", "193603.075000", "193603.077000", "193603.080000", "193603.083000", "193603.086000", "193603.088000", "193603.091000", "193603.094000", "193603.096000", "193603.099000", "193603.102000", "193603.104000", "193603.107000", "193703.051000", "193703.054000", "193703.056000", "193703.063000", "193703.065000", "193703.068000", "193703.071000", "193703.074000", "193703.076000", "193703.079000", "193703.082000", "193703.085000", "193703.087000", "193703.090000", "193703.093000", "193703.095000", "193703.098000", "193703.101000", "193703.104000", "193703.106000", "193703.109000", "193703.112000", "193703.114000", "193703.117000", "193803.033000", "193803.036000", "193803.038000", "193803.041000", "193803.043000", "193803.046000", "193803.049000", "193803.052000", "193803.054000", "193803.057000", "193803.060000", "193803.062000", "193803.065000", "193803.068000", "193803.070000", "193803.073000", "193803.076000", "193803.078000", "193803.081000", "193803.084000", "193803.086000", "193803.089000", "193803.092000", "193803.095000", "193816.847000", "193816.851000", "193816.853000", "193816.856000", "193816.859000", "193816.862000"],
      "InstanceCreationTime": ["193403.061000", "193403.064000", "193403.066000", "193403.069000", "193403.072000", "193403.075000", "193403.077000", "193403.082000", "193403.085000", "193403.087000", "193403.090000", "193403.093000", "193403.096000", "193403.098000", "193403.101000", "193403.104000", "193403.106000", "193403.109000", "193403.112000", "193403.114000", "193503.030000", "193503.033000", "193503.036000", "193503.039000", "193503.041000", "193503.044000", "193503.047000", "193503.049000", "193503.052000", "193503.055000", "193503.057000", "193503.060000", "193503.063000", "193503.065000", "193503.068000", "193503.071000", "193503.073000", "193503.076000", "193503.079000", "193503.081000", "193503.084000", "193503.087000", "193503.089000", "193503.092000", "193603.037000", "193603.040000", "193603.043000", "193603.045000", "193603.048000", "193603.051000", "193603.054000", "193603.064000", "193603.067000", "193603.069000", "193603.072000", "193603.075000", "193603.077000", "193603.080000", "193603.083000", "193603.086000", "193603.088000", "193603.091000", "193603.094000", "193603.096000", "193603.099000", "193603.102000", "193603.104000", "193603.107000", "193703.051000", "193703.054000", "193703.056000", "193703.063000", "193703.065000", "193703.068000", "193703.071000", "193703.074000", "193703.076000", "193703.079000", "193703.082000", "193703.085000", "193703.087000", "193703.090000", "193703.093000", "193703.095000", "193703.098000", "193703.101000", "193703.104000", "193703.106000", "193703.109000", "193703.112000", "193703.114000", "193703.117000", "193803.033000", "193803.036000", "193803.038000", "193803.041000", "193803.043000", "193803.046000", "193803.049000", "193803.052000", "193803.054000", "193803.057000", "193803.060000", "193803.062000", "193803.065000", "193803.068000", "193803.070000", "193803.073000", "193803.076000", "193803.078000", "193803.081000", "193803.084000", "193803.086000", "193803.089000", "193803.092000", "193803.095000", "193816.847000", "193816.851000", "193816.853000", "193816.856000", "193816.859000", "193816.862000"],
      "InstanceNumber": [1, 2, 3, 4, 5, 6, 7, 8, 9, 10, 11, 12, 13, 14, 15, 16, 17, 18, 19, 20, 21, 22, 23, 24, 25, 26, 27, 28, 29, 30, 31, 32, 33, 34, 35, 36, 37, 38, 39, 40, 41, 42, 43, 44, 45, 46, 47, 48, 49, 50, 51, 52, 53, 54, 55, 56, 57, 58, 59, 60, 61, 62, 63, 64, 65, 66, 67, 68, 69, 70, 71, 72, 73, 74, 75, 76, 77, 78, 79, 80, 81, 82, 83, 84, 85, 86, 87, 88, 89, 90, 91, 92, 93, 94, 95, 96, 97, 98, 99, 100, 101, 102, 103, 104, 105, 106, 107, 108, 109, 110, 111, 112, 113, 114, 115, 116, 117, 118, 119, 120, 121, 122],
      "LargestImagePixelValue": [1787, 2148, 2396, 1748, 2255, 2488, 1824, 1999, 2711, 1857, 2294, 2436, 2058, 1741, 2532, 2583, 2242, 2105, 1762, 2205, 2369, 1872, 2224, 2690, 2464, 1771, 1863, 2253, 2340, 1723, 1693, 1957, 2659, 1771, 1753, 2435, 1810, 2277, 2369, 2236, 2479, 1837, 1685, 2539, 2539, 2105, 2048, 2179, 2337, 2058, 1937, 2431, 2495, 2226, 1814, 2197, 2184, 2444, 1864, 2163, 2312, 1713, 1998, 2626, 2221, 1784, 2469, 2449, 1739, 2604, 2387, 1893, 1838, 2798, 2488, 1908, 2164, 2282, 2590, 1743, 1733, 2263, 2263, 2342, 2176, 2022, 2498, 2778, 2662, 1727, 2234, 2799, 2573, 1726, 1902, 2624, 2586, 2408, 2207, 1963, 1853, 1745, 2127, 2619, 1752, 2188, 2199, 1766, 1708, 2612, 2213, 1751, 1770, 2387, 2042, 1795, 1714, 2583, 2148, 1806, 2165, 2396],
      "WindowCenter": [679.0, 680.0, 681.0, 678.0, 680.0, 680.0, 678.0, 678.0, 680.0, 678.0, 680.0, 679.0, 678.0, 678.0, 681.0, 680.0, 679.0, 678.0, 676.0, 678.0, 678.0, 677.0, 678.0, 679.0, 679.0, 677.0, 674.0, 678.0, 678.0, 676.0, 677.0, 678.0, 680.0, 678.0, 679.0, 680.0, 677.0, 678.0, 680.0, 679.0, 679.0, 677.0, 678.0, 681.0, 680.0, 679.0, 678.0, 678.0, 678.0, 677.0, 678.0, 679.0, 679.0, 679.0, 678.0, 679.0, 678.0, 680.0, 678.0, 679.0, 679.0, 678.0, 679.0, 680.0, 679.0, 677.0, 680.0, 679.0, 677.0, 680.0, 679.0, 678.0, 678.0, 681.0, 679.0, 678.0, 679.0, 679.0, 679.0, 678.0, 679.0, 679.0, 678.0, 678.0, 679.0, 677.0, 679.0, 680.0, 679.0, 676.0, 678.0, 679.0, 677.0, 670.0, 680.0, 678.0, 676.0, 675.0, 675.0, 676.0, 677.0, 678.0, 680.0, 682.0, 679.0, 680.0, 679.0, 677.0, 677.0, 681.0, 679.0, 676.0, 679.0, 682.0, 679.0, 677.0, 677.0, 680.0, 678.0, 676.0, 677.0, 678.0],
      "WindowWidth": [1448.0, 1451.0, 1452.0, 1446.0, 1450.0, 1452.0, 1445.0, 1446.0, 1450.0, 1446.0, 1450.0, 1449.0, 1446.0, 1445.0, 1453.0, 1452.0, 1447.0, 1445.0, 1442.0, 1447.0, 1447.0, 1444.0, 1447.0, 1449.0, 1447.0, 1445.0, 1437.0, 1445.0, 1446.0, 1441.0, 1442.0, 1446.0, 1450.0, 1445.0, 1447.0, 1451.0, 1443.0, 1446.0, 1450.0, 1448.0, 1447.0, 1443.0, 1445.0, 1453.0, 1451.0, 1447.0, 1446.0, 1445.0, 1444.0, 1443.0, 1444.0, 1447.0, 1448.0, 1447.0, 1444.0, 1448.0, 1447.0, 1449.0, 1445.0, 1446.0, 1448.0, 1445.0, 1449.0, 1450.0, 1447.0, 1443.0, 1449.0, 1447.0, 1443.0, 1450.0, 1447.0, 1447.0, 1446.0, 1452.0, 1449.0, 1447.0, 1449.0, 1447.0, 1447.0, 1445.0, 1447.0, 1448.0, 1446.0, 1447.0, 1447.0, 1444.0, 1448.0, 1449.0, 1448.0, 1441.0, 1445.0, 1449.0, 1442.0, 1427.0, 1450.0, 1445.0, 1441.0, 1439.0, 1438.0, 1440.0, 1444.0, 1444.0, 1449.0, 1454.0, 1447.0, 1450.0, 1448.0, 1444.0, 1444.0, 1452.0, 1447.0, 1440.0, 1448.0, 1454.0, 1448.0, 1444.0, 1444.0, 1451.0, 1445.0, 1441.0, 1444.0, 1446.0]
    },
    "slices": {}
  }
}