{
  "AcquisitionMatrixPE": 72,
  "AcquisitionNumber": 1,
  "AcquisitionTime": "19:50:55.010000",
  "BandwidthPerPixelPhaseEncode": 24.366,
  "BaseResolution": 72,
  "BodyPartExamined": "BRAIN",
  "CoilCombinationMethod": "Sum of Squares",
  "ConsistencyInfo": "N4_VE11C_LATEST_20160120",
  "ConversionSoftware": "dcm2niix",
  "ConversionSoftwareVersion": "v1.0.20220720",
  "DerivedVendorReportedEchoSpacing": 0.000570011,
  "DeviceSerialNumber": "45219",
  "DwellTime": 3.5e-06,
  "EchoTime": 0.03,
  "EchoTrainLength": 72,
  "EffectiveEchoSpacing": 0.000570011,
  "FlipAngle": 80,
  "HeudiconvVersion": "1.1.6",
  "ImageComments": "Reference volume for motion correction.",
  "ImageOrientationPatientDICOM": [0.999976, -0.00047481, -0.00696492, -9.19154e-09, 0.997684, -0.0680151],
  "ImageOrientationText": "Tra>Cor(-3.9)>Sag(-0.4)",
  "ImageType": [
    "ORIGINAL",
    "PRIMARY",
    "M",
    "ND",
    "NORM",
    "MOCO",
    "MOSAIC"
],
  "ImagingFrequency": 123.182,
  "InPlanePhaseEncodingDirectionDICOM": "COL",
  "InstitutionAddress": "First Avenue 660,New York,NYC,US,10016",
  "InstitutionName": "NYU LANGONE CBI",
  "InstitutionalDepartmentName": "Department",
  "MRAcquisitionType": "2D",
  "MagneticFieldStrength": 3,
  "Manufacturer": "Siemens",
  "ManufacturersModelName": "Skyra",
  "MatrixCoilMode": "SENSE",
  "Modality": "MR",
  "NonlinearGradientCorrection": false,
  "PartialFourier": 1,
  "PatientPosition": "HFS",
  "PercentPhaseFOV": 100,
  "PercentSampling": 100,
  "PhaseEncodingDirection": "j-",
  "PhaseEncodingSteps": 72,
  "PhaseResolution": 1,
  "PixelBandwidth": 1985,
  "ProcedureStepDescription": "MRI BRAIN WITHOUT IV CONTRAST",
  "ProtocolName": "TASK_CD_MoCo",
  "PulseSequenceDetails": "%SiemensSeq%\\ep2d_bold",
  "ReceiveCoilActiveElements": "HE1-4",
  "ReceiveCoilName": "HeadNeck_20",
  "ReconMatrixPE": 72,
  "RepetitionTime": 2.5,
  "SAR": 0.100108,
  "ScanOptions": "FS",
  "ScanningSequence": "EP",
  "SequenceName": "*epfid2d1_72",
  "SequenceVariant": "SK",
  "SeriesDescription": "MoCoSeries",
  "SeriesNumber": 13,
  "ShimSetting": [-874, -6971, 5003, 301, -166, -308, 381, -114],
  "SliceThickness": 3,
  "SliceTiming": [1.24, 0, 1.305, 0.065, 1.37, 0.13, 1.435, 0.195, 1.5, 0.26, 1.565, 0.325, 1.6325, 0.3925, 1.6975, 0.4575, 1.7625, 0.5225, 1.8275, 0.5875, 1.8925, 0.6525, 1.9575, 0.7175, 2.0225, 0.7825, 2.0875, 0.8475, 2.1525, 0.9125, 2.2175, 0.98, 2.285, 1.045, 2.35, 1.11, 2.415, 1.175],
  "SoftwareVersions": "syngo MR E11",
  "SpacingBetweenSlices": 3,
  "StationName": "MRC45219",
  "TaskName": "cd",
  "TotalReadoutTime": 0.0404708,
  "TxRefAmp": 446.594,
  "dcmmeta_affine": [
    [-2.999926805496216, -2.7574625249826568e-08, -0.02094326727092266, 108.38497924804688],
    [0.0014244313351809978, 2.9930529594421387, -0.20404039323329926, -102.22074890136719],
    [-0.020894771441817284, 0.2040453553199768, 2.9929800033569336, -62.035037994384766],
    [0.0, 0.0, 0.0, 1.0]
],
  "dcmmeta_reorient_transform": [
    [0.0, -1.0, 0.0, 71.0],
    [1.0, 0.0, 0.0, 0.0],
    [0.0, 0.0, 1.0, 0.0],
    [0.0, 0.0, 0.0, 1.0]
],
  "dcmmeta_shape": [72, 72, 38, 132],
  "dcmmeta_slice_dim": 2,
  "dcmmeta_version": 0.6,
  "global": {
    "const": {
      "AccessionNumber": "123344233",
      "AcquisitionMatrix": [72, 0, 0, 72],
      "AngioFlag": "N",
      "BitsAllocated": 16,
      "BitsStored": 12,
      "BodyPartExamined": "BRAIN",
      "Columns": 504,
      "CountryOfResidence": "United States of America [1]",
      "EchoNumbers": 1,
      "EchoTime": 30.0,
      "EchoTrainLength": 72,
      "FlipAngle": 80.0,
      "HighBit": 11,
      "ImageOrientationPatient": [0.99997563189919, -0.0004748104595, -0.0069649237507, -9.191542e-09, 0.99768429044056, -0.0680151204375],
      "ImagePositionPatient": [-756.36917768579, -756.47775085117, 1.0392530058712],
      "ImageType": [
        "ORIGINAL",
        "PRIMARY",
        "M",
        "ND",
        "NORM",
        "MOCO",
        "MOSAIC"
],
      "ImagedNucleus": "1H",
      "ImagingFrequency": 123.182152,
      "InPlanePhaseEncodingDirection": "COL",
      "MRAcquisitionType": "2D",
      "MagneticFieldStrength": 3.0,
      "Manufacturer": "SIEMENS",
      "ManufacturerModelName": "Skyra",
      "Modality": "MR",
      "NumberOfAverages": 1.0,
      "NumberOfPhaseEncodingSteps": 72,
      "PercentPhaseFieldOfView": 100.0,
      "PercentSampling": 100.0,
      "PerformedProcedureStepStartTime": "191717.650000",
      "PhotometricInterpretation": "MONOCHROME2",
      "PixelBandwidth": 1985.0,
      "PixelRepresentation": 0,
      "PixelSpacing": [3.0, 3.0],
      "PregnancyStatus": 4,
      "ProcedureCodeSequence": [
        {
          "CodeMeaning": "MRI BRAIN WITHOUT IV CONTRAST",
          "CodeValue": "IMG269",
          "CodingSchemeDesignator": "L"
        }
],
      "ProtocolName": "TASK_CD",
      "RepetitionTime": 2500.0,
      "RequestAttributesSequence": [
        {
          "RequestedProcedureID": "125739972",
          "ScheduledProcedureStepDescription": "MRI BRAIN WITHOUT IV CONTRAST",
          "ScheduledProcedureStepID": "E9534232",
          "ScheduledProtocolCodeSequence": [
            {
              "CodeMeaning": "MRI BRAIN WITHOUT IV CONTRAST",
              "CodeValue": "651061",
              "CodingSchemeDesignator": "L"
            }
]
        }
],
      "RequestedProcedureCodeSequence": [
        {
          "CodeMeaning": "MRI BRAIN WITHOUT IV CONTRAST",
          "CodeValue": "IMG269",
          "CodingSchemeDesignator": "L"
        }
],
      "Rows": 504,
      "SAR": 0.10010782883555,
      "SamplesPerPixel": 1,
      "ScanOptions": "FS",
      "ScanningSequence": "EP",
      "SequenceName": "*epfid2d1_72",
      "SequenceVariant": "SK",
      "SeriesDescription": "MoCoSeries",
      "SeriesNumber": 13,
      "SeriesTime": "195203.046000",
      "SliceLocation": -55.694131237152,
      "SliceThickness": 3.0,
      "SmallestImagePixelValue": 0,
      "SmokingStatus": "UNKNOWN",
      "SoftwareVersions": "syngo MR E11",
      "SpacingBetweenSlices": 2.9999999899635,
      "SpecificCharacterSet": "ISO_IR 100",
      "StudyID": "CM",
      "StudyTime": "191717.501000",
      "TransmitCoilName": "Body",
      "VariableFlipAngleFlag": "N",
      "WindowCenterWidthExplanation": "Algo1",
      "dBdt": 0.0},
    "slices": {}
  },
  "time": {
    "samples": {
      "AcquisitionNumber": [1, 2, 3, 4, 5, 6, 7, 8, 9, 10, 11, 12, 13, 14, 15, 16, 17, 18, 19, 20, 21, 22, 23, 24, 25, 26, 27, 28, 29, 30, 31, 32, 33, 34, 35, 36, 37, 38, 39, 40, 41, 42, 43, 44, 45, 46, 47, 48, 49, 50, 51, 52, 53, 54, 55, 56, 57, 58, 59, 60, 61, 62, 63, 64, 65, 66, 67, 68, 69, 70, 71, 72, 73, 74, 75, 76, 77, 78, 79, 80, 81, 82, 83, 84, 85, 86, 87, 88, 89, 90, 91, 92, 93, 94, 95, 96, 97, 98, 99, 100, 101, 102, 103, 104, 105, 106, 107, 108, 109, 110, 111, 112, 113, 114, 115, 116, 117, 118, 119, 120, 121, 122, 123, 124, 125, 126, 127, 128, 129, 130, 131, 132],
      "AcquisitionTime": ["195055.010000", "195057.510000", "195100.010000", "195102.510000", "195105.010000", "195107.510000", "195110.010000", "195112.510000", "195115.010000", "195117.510000", "195120.010000", "195122.510000", "195125.010000", "195127.510000", "195130.010000", "195132.510000", "195135.010000", "195137.510000", "195140.010000", "195142.510000", "195145.010000", "195147.510000", "195150.010000", "195152.510000", "195155.010000", "195157.510000", "195200.010000", "195202.510000", "195205.010000", "195207.510000", "195210.010000", "195212.510000", "195215.010000", "195217.510000", "195220.010000", "195222.510000", "195225.010000", "195227.510000", "195230.010000", "195232.510000", "195235.010000", "195237.510000", "195240.010000", "195242.510000", "195245.010000", "195247.510000", "195250.010000", "195252.510000", "195255.010000", "195257.510000", "195300.010000", "195302.510000", "195305.010000", "195307.510000", "195310.010000", "195312.510000", "195315.010000", "195317.510000", "195320.010000", "195322.510000", "195325.010000", "195327.510000", "195330.010000", "195332.510000", "195335.010000", "195337.510000", "195340.010000", "195342.510000", "195345.010000", "195347.510000", "195350.010000", "195352.510000", "195355.010000", "195357.510000", "195400.010000", "195402.510000", "195405.010000", "195407.510000", "195410.010000", "195412.510000", "195415.010000", "195417.510000", "195420.010000", "195422.510000", "195425.010000", "195427.510000", "195430.010000", "195432.510000", "195435.010000", "195437.510000", "195440.010000", "195442.510000", "195445.010000", "195447.510000", "195450.010000", "195452.510000", "195455.010000", "195457.510000", "195500.010000", "195502.510000", "195505.010000", "195507.510000", "195510.010000", "195512.510000", "195515.010000", "195517.510000", "195520.010000", "195522.510000", "195525.010000", "195527.510000", "195530.010000", "195532.510000", "195535.010000", "195537.510000", "195540.010000", "195542.510000", "195545.010000", "195547.510000", "195550.010000", "195552.510000", "195555.010000", "195557.510000", "195600.010000", "195602.510000", "195605.010000", "195607.510000", "195610.010000", "195612.510000", "195615.010000", "195617.510000", "195620.010000", "195622.510000"],
      "ContentTime": ["195203.048000", "195203.051000", "195203.054000", "195203.057000", "195203.059000", "195203.062000", "195203.072000", "195203.074000", "195203.077000", "195203.100000", "195203.103000", "195203.106000", "195203.108000", "195203.111000", "195203.114000", "195203.117000", "195203.119000", "195203.122000", "195203.125000", "195203.127000", "195203.130000", "195203.132000", "195203.135000", "195203.138000", "195203.141000", "195203.143000", "195203.146000", "195303.045000", "195303.048000", "195303.050000", "195303.053000", "195303.056000", "195303.058000", "195303.061000", "195303.064000", "195303.066000", "195303.069000", "195303.072000", "195303.074000", "195303.082000", "195303.085000", "195303.088000", "195303.090000", "195303.093000", "195303.096000", "195303.098000", "195303.101000", "195303.104000", "195303.106000", "195303.109000", "195303.112000", "195403.036000", "195403.039000", "195403.042000", "195403.044000", "195403.047000", "195403.050000", "195403.053000", "195403.055000", "195403.058000", "195403.061000", "195403.063000", "195403.066000", "195403.069000", "195403.071000", "195403.074000", "195403.077000", "195403.079000", "195403.082000", "195403.085000", "195403.088000", "195403.090000", "195403.093000", "195403.096000", "195403.098000", "195503.055000", "195503.058000", "195503.060000", "195503.063000", "195503.066000", "195503.068000", "195503.071000", "195503.074000", "195503.077000", "195503.079000", "195503.082000", "195503.085000", "195503.087000", "195503.090000", "195503.093000", "195503.095000", "195503.098000", "195503.101000", "195503.103000", "195503.106000", "195503.109000", "195503.111000", "195503.114000", "195503.117000", "195603.029000", "195603.032000", "195603.035000", "195603.037000", "195603.040000", "195603.043000", "195603.046000", "195603.048000", "195603.051000", "195603.054000", "195603.056000", "195603.059000", "195603.062000", "195603.064000", "195603.067000", "195603.070000", "195603.073000", "195603.075000", "195603.078000", "195603.081000", "195603.083000", "195603.086000", "195603.089000", "195603.091000", "195624.345000", "195624.349000", "195624.352000", "195624.355000", "195624.358000", "195624.369000", "195624.372000", "195624.376000", "195624.379000"],
      "InstanceCreationTime": ["195203.048000", "195203.051000", "195203.054000", "195203.057000", "195203.059000", "195203.062000", "195203.072000", "195203.074000", "195203.077000", "195203.100000", "195203.103000", "195203.106000", "195203.108000", "195203.111000", "195203.114000", "195203.117000", "195203.119000", "195203.122000", "195203.125000", "195203.127000", "195203.130000", "195203.132000", "195203.135000", "195203.138000", "195203.141000", "195203.143000", "195203.146000", "195303.045000", "195303.048000", "195303.050000", "195303.053000", "195303.056000", "195303.058000", "195303.061000", "195303.064000", "195303.066000", "195303.069000", "195303.072000", "195303.074000", "195303.082000", "195303.085000", "195303.088000", "195303.090000", "195303.093000", "195303.096000", "195303.098000", "195303.101000", "195303.104000", "195303.106000", "195303.109000", "195303.112000", "195403.036000", "195403.039000", "195403.042000", "195403.044000", "195403.047000", "195403.050000", "195403.053000", "195403.055000", "195403.058000", "195403.061000", "195403.063000", "195403.066000", "195403.069000", "195403.071000", "195403.074000", "195403.077000", "195403.079000", "195403.082000", "195403.085000", "195403.088000", "195403.090000", "195403.093000", "195403.096000", "195403.098000", "195503.055000", "195503.058000", "195503.060000", "195503.063000", "195503.066000", "195503.068000", "195503.071000", "195503.074000", "195503.077000", "195503.079000", "195503.082000", "195503.085000", "195503.087000", "195503.090000", "195503.093000", "195503.095000", "195503.098000", "195503.101000", "195503.103000", "195503.106000", "195503.109000", "195503.111000", "195503.114000", "195503.117000", "195603.029000", "195603.032000", "195603.035000", "195603.037000", "195603.040000", "195603.043000", "195603.046000", "195603.048000", "195603.051000", "195603.054000", "195603.056000", "195603.059000", "195603.062000", "195603.064000", "195603.067000", "195603.070000", "195603.073000", "195603.075000", "195603.078000", "195603.081000", "195603.083000", "195603.086000", "195603.089000", "195603.091000", "195624.345000", "195624.349000", "195624.352000", "195624.355000", "195624.358000", "195624.369000", "195624.372000", "195624.376000", "195624.379000"],
      "InstanceNumber": [1, 2, 3, 4, 5, 6, 7, 8, 9, 10, 11, 12, 13, 14, 15, 16, 17, 18, 19, 20, 21, 22, 23, 24, 25, 26, 27, 28, 29, 30, 31, 32, 33, 34, 35, 36, 37, 38, 39, 40, 41, 42, 43, 44, 45, 46, 47, 48, 49, 50, 51, 52, 53, 54, 55, 56, 57, 58, 59, 60, 61, 62, 63, 64, 65, 66, 67, 68, 69, 70, 71, 72, 73, 74, 75, 76, 77, 78, 79, 80, 81, 82, 83, 84, 85, 86, 87, 88, 89, 90, 91, 92, 93, 94, 95, 96, 97, 98, 99, 100, 101, 102, 103, 104, 105, 106, 107, 108, 109, 110, 111, 112, 113, 114, 115, 116, 117, 118, 119, 120, 121, 122, 123, 124, 125, 126, 127, 128, 129, 130, 131, 132],
      "LargestImagePixelValue": [1919, 2296, 1746, 1622, 1651, 1709, 1714, 1603, 1680, 1666, 1713, 2049, 2223, 2289, 1677, 1822, 1731, 1811, 1838, 1682, 1692, 1728, 1705, 1691, 2374, 1729, 1769, 1689, 1676, 1682, 1829, 1630, 1678, 1698, 1948, 1671, 1687, 1732, 1833, 1738, 1656, 1652, 1594, 1694, 1738, 1671, 1996, 1710, 1919, 2652, 1683, 1704, 1672, 1695, 2284, 1774, 1722, 1701, 1800, 2198, 1761, 1739, 1712, 1723, 1721, 1730, 1575, 1767, 1817, 2025, 1963, 1746, 1799, 1649, 1770, 1692, 1691, 1805, 1726, 2191, 2151, 1953, 1694, 1733, 1700, 1748, 1712, 1682, 1659, 1692, 1708, 1766, 1699, 1685, 1910, 2319, 1716, 1713, 1798, 1660, 2254, 1715, 1762, 1697, 1758, 1661, 1698, 1740, 1866, 2256, 1934, 2259, 2549, 1709, 1767, 2003, 1957, 1664, 1693, 1784, 1780, 1646, 2096, 1708, 1620, 1719, 1821, 1844, 2797, 1694, 1667, 1694],
      "WindowCenter": [677.0, 676.0, 674.0, 675.0, 675.0, 676.0, 675.0, 673.0, 678.0, 676.0, 676.0, 676.0, 677.0, 676.0, 673.0, 676.0, 675.0, 675.0, 674.0, 674.0, 676.0, 673.0, 675.0, 675.0, 677.0, 673.0, 675.0, 675.0, 674.0, 674.0, 674.0, 674.0, 675.0, 674.0, 675.0, 673.0, 674.0, 674.0, 674.0, 674.0, 674.0, 673.0, 671.0, 673.0, 673.0, 674.0, 675.0, 673.0, 673.0, 676.0, 670.0, 670.0, 673.0, 673.0, 674.0, 672.0, 670.0, 674.0, 673.0, 671.0, 672.0, 674.0, 674.0, 674.0, 675.0, 673.0, 668.0, 675.0, 674.0, 673.0, 670.0, 673.0, 674.0, 672.0, 673.0, 672.0, 675.0, 676.0, 674.0, 676.0, 674.0, 672.0, 673.0, 674.0, 674.0, 675.0, 675.0, 675.0, 673.0, 674.0, 672.0, 675.0, 674.0, 674.0, 674.0, 674.0, 673.0, 674.0, 675.0, 674.0, 673.0, 673.0, 672.0, 671.0, 673.0, 672.0, 669.0, 675.0, 674.0, 674.0, 675.0, 675.0, 671.0, 671.0, 675.0, 673.0, 673.0, 672.0, 676.0, 664.0, 676.0, 671.0, 675.0, 672.0, 672.0, 676.0, 675.0, 672.0, 675.0, 671.0, 673.0, 673.0],
      "WindowWidth": [1443.0, 1441.0, 1436.0, 1438.0, 1440.0, 1442.0, 1439.0, 1436.0, 1446.0, 1443.0, 1442.0, 1441.0, 1443.0, 1442.0, 1434.0, 1442.0, 1440.0, 1439.0, 1437.0, 1438.0, 1441.0, 1435.0, 1439.0, 1438.0, 1443.0, 1434.0, 1439.0, 1439.0, 1437.0, 1436.0, 1438.0, 1436.0, 1440.0, 1438.0, 1438.0, 1435.0, 1437.0, 1436.0, 1437.0, 1437.0, 1437.0, 1433.0, 1429.0, 1435.0, 1435.0, 1437.0, 1438.0, 1433.0, 1434.0, 1441.0, 1428.0, 1427.0, 1435.0, 1435.0, 1435.0, 1433.0, 1426.0, 1436.0, 1434.0, 1429.0, 1432.0, 1436.0, 1437.0, 1436.0, 1440.0, 1433.0, 1422.0, 1439.0, 1437.0, 1433.0, 1427.0, 1434.0, 1436.0, 1433.0, 1434.0, 1432.0, 1439.0, 1442.0, 1438.0, 1441.0, 1437.0, 1432.0, 1434.0, 1437.0, 1436.0, 1438.0, 1439.0, 1438.0, 1436.0, 1437.0, 1432.0, 1439.0, 1436.0, 1437.0, 1437.0, 1437.0, 1434.0, 1437.0, 1440.0, 1436.0, 1434.0, 1435.0, 1433.0, 1430.0, 1435.0, 1432.0, 1425.0, 1438.0, 1438.0, 1438.0, 1439.0, 1439.0, 1429.0, 1429.0, 1439.0, 1435.0, 1434.0, 1433.0, 1441.0, 1412.0, 1441.0, 1430.0, 1437.0, 1432.0, 1432.0, 1442.0, 1438.0, 1432.0, 1439.0, 1429.0, 1434.0, 1434.0]
    },
    "slices": {}
  }
}