{
  "AcquisitionMatrixPE": 72,
  "AcquisitionNumber": 1,
  "AcquisitionTime": "17:07:4.337500",
  "BandwidthPerPixelPhaseEncode": 24.366,
  "BaseResolution": 72,
  "BodyPartExamined": "BRAIN",
  "CoilCombinationMethod": "Sum of Squares",
  "ConsistencyInfo": "N4_VE11C_LATEST_20160120",
  "ConversionSoftware": "dcm2niix",
  "ConversionSoftwareVersion": "v1.0.20220720",
  "DerivedVendorReportedEchoSpacing": 0.000570011,
  "DeviceSerialNumber": "45219",
  "DwellTime": 3.5e-06,
  "EchoTime": 0.03,
  "EchoTrainLength": 72,
  "EffectiveEchoSpacing": 0.000570011,
  "FlipAngle": 80,
  "HeudiconvVersion": "1.1.6",
  "ImageOrientationPatientDICOM": [1, 0, 0, 0, 0.986572, 0.163326],
  "ImageOrientationText": "Tra>Cor(9.4)",
  "ImageType": [
    "ORIGINAL",
    "PRIMARY",
    "M",
    "ND",
    "NORM",
    "MOSAIC"
],
  "ImagingFrequency": 123.182,
  "InPlanePhaseEncodingDirectionDICOM": "COL",
  "InstitutionAddress": "First Avenue 660,New York,NYC,US,10016",
  "InstitutionName": "NYU LANGONE CBI",
  "InstitutionalDepartmentName": "Department",
  "MRAcquisitionType": "2D",
  "MagneticFieldStrength": 3,
  "Manufacturer": "Siemens",
  "ManufacturersModelName": "Skyra",
  "MatrixCoilMode": "SENSE",
  "Modality": "MR",
  "NonlinearGradientCorrection": false,
  "PartialFourier": 1,
  "PatientPosition": "HFS",
  "PercentPhaseFOV": 100,
  "PercentSampling": 100,
  "PhaseEncodingDirection": "j-",
  "PhaseEncodingSteps": 72,
  "PhaseResolution": 1,
  "PixelBandwidth": 1985,
  "ProcedureStepDescription": "MRI BRAIN WITHOUT IV CONTRAST",
  "ProtocolName": "TASK_CD",
  "PulseSequenceDetails": "%SiemensSeq%\\ep2d_bold",
  "ReceiveCoilActiveElements": "HE1-4",
  "ReceiveCoilName": "HeadNeck_20",
  "ReconMatrixPE": 72,
  "RepetitionTime": 2.5,
  "SAR": 0.143771,
  "ScanOptions": "FS",
  "ScanningSequence": "EP",
  "SequenceName": "*epfid2d1_72",
  "SequenceVariant": "SK",
  "SeriesDescription": "TASK_CD",
  "SeriesNumber": 12,
  "ShimSetting": [-903, -7047, 5131, 480, -240, 169, 431, -188],
  "SliceThickness": 3,
  "SliceTiming": [1.24, 0, 1.305, 0.065, 1.37, 0.13, 1.435, 0.195, 1.5, 0.26, 1.565, 0.325, 1.6325, 0.3925, 1.6975, 0.4575, 1.7625, 0.5225, 1.8275, 0.5875, 1.8925, 0.6525, 1.9575, 0.7175, 2.0225, 0.7825, 2.0875, 0.8475, 2.1525, 0.9125, 2.2175, 0.98, 2.285, 1.045, 2.35, 1.11, 2.415, 1.175],
  "SoftwareVersions": "syngo MR E11",
  "SpacingBetweenSlices": 3,
  "StationName": "MRC45219",
  "TaskName": "cd",
  "TotalReadoutTime": 0.0404708,
  "TxRefAmp": 421.773,
  "dcmmeta_affine": [
    [-3.0, 0.0, 0.0, 108.0],
    [0.0, 2.959716558456421, 0.4899778664112091, -114.2078628540039],
    [0.0, -0.4899778664112091, 2.959716320037842, -10.376914024353027],
    [0.0, 0.0, 0.0, 1.0]
],
  "dcmmeta_reorient_transform": [
    [0.0, -1.0, 0.0, 71.0],
    [1.0, 0.0, 0.0, 0.0],
    [0.0, 0.0, 1.0, 0.0],
    [0.0, 0.0, 0.0, 1.0]
],
  "dcmmeta_shape": [72, 72, 38, 132],
  "dcmmeta_slice_dim": 2,
  "dcmmeta_version": 0.6,
  "global": {
    "const": {
      "AcquisitionMatrix": [72, 0, 0, 72],
      "AngioFlag": "N",
      "BitsAllocated": 16,
      "BitsStored": 12,
      "BodyPartExamined": "BRAIN",
      "Columns": 504,
      "CountryOfResidence": "United States of America [1]",
      "EchoNumbers": 1,
      "EchoTime": 30.0,
      "EchoTrainLength": 72,
      "FlipAngle": 80.0,
      "HighBit": 11,
      "ImageOrientationPatient": [1.0, 0.0, 0.0, 0.0, 0.98657216211243, 0.16332595918836],
      "ImagePositionPatient": [-756.0, -735.2307652885, -151.00056535941],
      "ImageType": [
        "ORIGINAL",
        "PRIMARY",
        "M",
        "ND",
        "NORM",
        "MOSAIC"
],
      "ImagedNucleus": "1H",
      "ImagingFrequency": 123.181909,
      "InPlanePhaseEncodingDirection": "COL",
      "MRAcquisitionType": "2D",
      "MagneticFieldStrength": 3.0,
      "Manufacturer": "SIEMENS",
      "ManufacturerModelName": "Skyra",
      "Modality": "MR",
      "NumberOfAverages": 1.0,
      "NumberOfPhaseEncodingSteps": 72,
      "PercentPhaseFieldOfView": 100.0,
      "PercentSampling": 100.0,
      "PerformedProcedureStepStartTime": "164247.712000",
      "PhotometricInterpretation": "MONOCHROME2",
      "PixelBandwidth": 1985.0,
      "PixelRepresentation": 0,
      "PixelSpacing": [3.0, 3.0],
      "PregnancyStatus": 4,
      "ProcedureCodeSequence": [
        {
          "CodeMeaning": "MRI BRAIN WITHOUT IV CONTRAST",
          "CodeValue": "IMG269",
          "CodingSchemeDesignator": "L"
        }
],
      "ProtocolName": "TASK_CD",
      "RepetitionTime": 2500.0,
      "RequestAttributesSequence": [
        {
          "RequestedProcedureID": "305297745",
          "ScheduledProcedureStepDescription": "MRI BRAIN WITHOUT IV CONTRAST",
          "ScheduledProcedureStepID": "E9130836",
          "ScheduledProtocolCodeSequence": [
            {
              "CodeMeaning": "MRI BRAIN WITHOUT IV CONTRAST",
              "CodeValue": "651061",
              "CodingSchemeDesignator": "L"
            }
]
        }
],
      "RequestedProcedureCodeSequence": [
        {
          "CodeMeaning": "MRI BRAIN WITHOUT IV CONTRAST",
          "CodeValue": "IMG269",
          "CodingSchemeDesignator": "L"
        }
],
      "Rows": 504,
      "SAR": 0.1437709717992,
      "SamplesPerPixel": 1,
      "ScanOptions": "FS",
      "ScanningSequence": "EP",
      "SequenceName": "*epfid2d1_72",
      "SequenceVariant": "SK",
      "SeriesDescription": "TASK_CD",
      "SeriesNumber": 12,
      "SeriesTime": "170811.697000",
      "SliceLocation": -28.890684281299,
      "SliceThickness": 3.0,
      "SmallestImagePixelValue": 0,
      "SmokingStatus": "UNKNOWN",
      "SoftwareVersions": "syngo MR E11",
      "SpacingBetweenSlices": 2.9999999520938,
      "SpecificCharacterSet": "ISO_IR 100",
      "StudyTime": "164247.560000",
      "TransmitCoilName": "Body",
      "VariableFlipAngleFlag": "N",
      "WindowCenterWidthExplanation": "Algo1",
      "dBdt": 0.0},
    "slices": {}
  },
  "time": {
    "samples": {
      "AcquisitionNumber": [1, 2, 3, 4, 5, 6, 7, 8, 9, 10, 11, 12, 13, 14, 15, 16, 17, 18, 19, 20, 21, 22, 23, 24, 25, 26, 27, 28, 29, 30, 31, 32, 33, 34, 35, 36, 37, 38, 39, 40, 41, 42, 43, 44, 45, 46, 47, 48, 49, 50, 51, 52, 53, 54, 55, 56, 57, 58, 59, 60, 61, 62, 63, 64, 65, 66, 67, 68, 69, 70, 71, 72, 73, 74, 75, 76, 77, 78, 79, 80, 81, 82, 83, 84, 85, 86, 87, 88, 89, 90, 91, 92, 93, 94, 95, 96, 97, 98, 99, 100, 101, 102, 103, 104, 105, 106, 107, 108, 109, 110, 111, 112, 113, 114, 115, 116, 117, 118, 119, 120, 121, 122, 123, 124, 125, 126, 127, 128, 129, 130, 131, 132],
      "AcquisitionTime": ["170704.337500", "170706.837500", "170709.337500", "170711.837500", "170714.337500", "170716.837500", "170719.337500", "170721.837500", "170724.337500", "170726.837500", "170729.337500", "170731.837500", "170734.337500", "170736.837500", "170739.337500", "170741.837500", "170744.337500", "170746.837500", "170749.337500", "170751.837500", "170754.337500", "170756.837500", "170759.337500", "170801.837500", "170804.337500", "170806.837500", "170809.337500", "170811.837500", "170814.337500", "170816.837500", "170819.337500", "170821.837500", "170824.337500", "170826.837500", "170829.337500", "170831.837500", "170834.337500", "170836.837500", "170839.337500", "170841.837500", "170844.337500", "170846.837500", "170849.337500", "170851.837500", "170854.337500", "170856.837500", "170859.337500", "170901.837500", "170904.337500", "170906.837500", "170909.337500", "170911.837500", "170914.337500", "170916.837500", "170919.337500", "170921.837500", "170924.337500", "170926.837500", "170929.337500", "170931.837500", "170934.337500", "170936.837500", "170939.337500", "170941.837500", "170944.337500", "170946.837500", "170949.337500", "170951.837500", "170954.337500", "170956.837500", "170959.337500", "171001.837500", "171004.337500", "171006.837500", "171009.337500", "171011.837500", "171014.337500", "171016.837500", "171019.337500", "171021.837500", "171024.337500", "171026.837500", "171029.337500", "171031.837500", "171034.337500", "171036.837500", "171039.337500", "171041.837500", "171044.337500", "171046.837500", "171049.337500", "171051.837500", "171054.337500", "171056.837500", "171059.337500", "171101.837500", "171104.337500", "171106.837500", "171109.337500", "171111.837500", "171114.337500", "171116.837500", "171119.337500", "171121.837500", "171124.337500", "171126.837500", "171129.337500", "171131.837500", "171134.337500", "171136.837500", "171139.337500", "171141.837500", "171144.337500", "171146.837500", "171149.337500", "171151.837500", "171154.337500", "171156.837500", "171159.337500", "171201.837500", "171204.337500", "171206.837500", "171209.337500", "171211.837500", "171214.337500", "171216.837500", "171219.337500", "171221.837500", "171224.337500", "171226.837500", "171229.337500", "171231.837500"],
      "ContentTime": ["170811.701000", "170811.704000", "170811.707000", "170811.710000", "170811.713000", "170811.715000", "170811.718000", "170811.721000", "170811.723000", "170811.726000", "170811.729000", "170811.732000", "170811.734000", "170811.737000", "170811.739000", "170811.742000", "170811.745000", "170811.747000", "170811.767000", "170811.770000", "170811.772000", "170811.775000", "170811.778000", "170811.781000", "170811.783000", "170811.786000", "170811.788000", "170911.696000", "170911.698000", "170911.701000", "170911.704000", "170911.707000", "170911.709000", "170911.720000", "170911.723000", "170911.726000", "170911.728000", "170911.731000", "170911.733000", "170911.736000", "170911.739000", "170911.741000", "170911.744000", "170911.747000", "170911.749000", "170911.752000", "170911.755000", "170911.758000", "170911.760000", "170911.763000", "170911.766000", "171011.696000", "171011.699000", "171011.701000", "171011.704000", "171011.707000", "171011.710000", "171011.712000", "171011.715000", "171011.718000", "171011.720000", "171011.723000", "171011.726000", "171011.729000", "171011.732000", "171011.735000", "171011.738000", "171011.741000", "171011.743000", "171011.746000", "171011.749000", "171011.753000", "171011.755000", "171011.758000", "171011.761000", "171111.697000", "171111.699000", "171111.702000", "171111.705000", "171111.708000", "171111.710000", "171111.713000", "171111.716000", "171111.718000", "171111.721000", "171111.723000", "171111.726000", "171111.729000", "171111.732000", "171111.734000", "171111.737000", "171111.740000", "171111.742000", "171111.745000", "171111.748000", "171111.750000", "171111.753000", "171111.756000", "171111.758000", "171211.695000", "171211.698000", "171211.701000", "171211.704000", "171211.707000", "171211.709000", "171211.712000", "171211.715000", "171211.717000", "171211.720000", "171211.722000", "171211.725000", "171211.728000", "171211.731000", "171211.733000", "171211.736000", "171211.739000", "171211.741000", "171211.744000", "171211.747000", "171211.749000", "171211.752000", "171211.755000", "171211.757000", "171233.467000", "171233.470000", "171233.473000", "171233.482000", "171233.485000", "171233.487000", "171233.490000", "171233.493000", "171233.496000"],
      "InstanceCreationTime": ["170811.701000", "170811.704000", "170811.707000", "170811.710000", "170811.713000", "170811.715000", "170811.718000", "170811.721000", "170811.723000", "170811.726000", "170811.729000", "170811.732000", "170811.734000", "170811.737000", "170811.739000", "170811.742000", "170811.745000", "170811.747000", "170811.767000", "170811.770000", "170811.772000", "170811.775000", "170811.778000", "170811.781000", "170811.783000", "170811.786000", "170811.788000", "170911.696000", "170911.698000", "170911.701000", "170911.704000", "170911.707000", "170911.709000", "170911.720000", "170911.723000", "170911.726000", "170911.728000", "170911.731000", "170911.733000", "170911.736000", "170911.739000", "170911.741000", "170911.744000", "170911.747000", "170911.749000", "170911.752000", "170911.755000", "170911.758000", "170911.760000", "170911.763000", "170911.766000", "171011.696000", "171011.699000", "171011.701000", "171011.704000", "171011.707000", "171011.710000", "171011.712000", "171011.715000", "171011.718000", "171011.720000", "171011.723000", "171011.726000", "171011.729000", "171011.732000", "171011.735000", "171011.738000", "171011.741000", "171011.743000", "171011.746000", "171011.749000", "171011.753000", "171011.755000", "171011.758000", "171011.761000", "171111.697000", "171111.699000", "171111.702000", "171111.705000", "171111.708000", "171111.710000", "171111.713000", "171111.716000", "171111.718000", "171111.721000", "171111.723000", "171111.726000", "171111.729000", "171111.732000", "171111.734000", "171111.737000", "171111.740000", "171111.742000", "171111.745000", "171111.748000", "171111.750000", "171111.753000", "171111.756000", "171111.758000", "171211.695000", "171211.698000", "171211.701000", "171211.704000", "171211.707000", "171211.709000", "171211.712000", "171211.715000", "171211.717000", "171211.720000", "171211.722000", "171211.725000", "171211.728000", "171211.731000", "171211.733000", "171211.736000", "171211.739000", "171211.741000", "171211.744000", "171211.747000", "171211.749000", "171211.752000", "171211.755000", "171211.757000", "171233.467000", "171233.470000", "171233.473000", "171233.482000", "171233.485000", "171233.487000", "171233.490000", "171233.493000", "171233.496000"],
      "InstanceNumber": [1, 2, 3, 4, 5, 6, 7, 8, 9, 10, 11, 12, 13, 14, 15, 16, 17, 18, 19, 20, 21, 22, 23, 24, 25, 26, 27, 28, 29, 30, 31, 32, 33, 34, 35, 36, 37, 38, 39, 40, 41, 42, 43, 44, 45, 46, 47, 48, 49, 50, 51, 52, 53, 54, 55, 56, 57, 58, 59, 60, 61, 62, 63, 64, 65, 66, 67, 68, 69, 70, 71, 72, 73, 74, 75, 76, 77, 78, 79, 80, 81, 82, 83, 84, 85, 86, 87, 88, 89, 90, 91, 92, 93, 94, 95, 96, 97, 98, 99, 100, 101, 102, 103, 104, 105, 106, 107, 108, 109, 110, 111, 112, 113, 114, 115, 116, 117, 118, 119, 120, 121, 122, 123, 124, 125, 126, 127, 128, 129, 130, 131, 132],
      "LargestImagePixelValue": [2275, 2020, 2326, 2264, 1957, 1867, 1896, 1984, 1900, 1970, 1904, 1967, 2245, 1916, 2083, 2399, 2393, 2172, 1882, 1907, 2614, 1883, 1899, 1865, 2477, 2091, 1933, 2274, 1935, 1904, 1844, 2370, 2095, 2020, 2102, 1893, 1920, 2600, 1889, 2193, 2218, 1876, 1895, 2423, 2372, 2240, 1913, 1934, 1892, 1886, 1873, 1922, 1943, 1914, 1888, 1907, 1885, 1915, 1936, 1868, 1902, 1890, 1895, 1896, 1995, 2305, 2369, 2250, 1937, 1902, 1910, 1886, 1900, 1850, 2159, 1897, 1907, 1927, 2272, 1932, 1871, 2370, 2245, 2417, 2150, 1890, 1876, 1930, 1878, 1898, 1899, 1869, 1918, 1863, 1899, 2025, 2335, 2455, 2272, 1928, 1907, 1892, 1875, 1895, 1874, 1905, 1929, 1976, 1945, 1958, 2049, 1874, 1921, 2230, 1929, 1872, 2068, 2124, 1861, 2387, 2297, 1891, 2292, 2462, 2103, 2158, 1940, 1946, 1903, 1959, 1884, 1966],
      "WindowCenter": [675.0, 670.0, 671.0, 670.0, 671.0, 672.0, 672.0, 672.0, 672.0, 673.0, 672.0, 672.0, 673.0, 673.0, 673.0, 673.0, 672.0, 671.0, 672.0, 673.0, 674.0, 671.0, 673.0, 673.0, 675.0, 673.0, 672.0, 673.0, 673.0, 674.0, 673.0, 675.0, 673.0, 672.0, 672.0, 672.0, 673.0, 675.0, 671.0, 673.0, 671.0, 670.0, 670.0, 671.0, 670.0, 670.0, 668.0, 669.0, 670.0, 670.0, 671.0, 672.0, 672.0, 672.0, 671.0, 672.0, 672.0, 672.0, 673.0, 673.0, 673.0, 673.0, 672.0, 672.0, 672.0, 672.0, 672.0, 671.0, 670.0, 670.0, 671.0, 671.0, 671.0, 672.0, 672.0, 672.0, 674.0, 673.0, 674.0, 673.0, 673.0, 674.0, 673.0, 672.0, 671.0, 670.0, 670.0, 670.0, 670.0, 671.0, 672.0, 672.0, 673.0, 673.0, 674.0, 673.0, 674.0, 673.0, 672.0, 670.0, 670.0, 671.0, 672.0, 672.0, 672.0, 672.0, 672.0, 671.0, 671.0, 671.0, 671.0, 671.0, 671.0, 672.0, 672.0, 672.0, 673.0, 672.0, 674.0, 674.0, 672.0, 670.0, 671.0, 671.0, 669.0, 669.0, 669.0, 670.0, 670.0, 671.0, 672.0, 672.0],
      "WindowWidth": [1433.0, 1423.0, 1423.0, 1422.0, 1424.0, 1427.0, 1427.0, 1427.0, 1427.0, 1429.0, 1427.0, 1427.0, 1428.0, 1428.0, 1429.0, 1429.0, 1426.0, 1425.0, 1427.0, 1428.0, 1430.0, 1425.0, 1430.0, 1430.0, 1433.0, 1428.0, 1427.0, 1427.0, 1430.0, 1430.0, 1429.0, 1433.0, 1428.0, 1427.0, 1427.0, 1427.0, 1429.0, 1433.0, 1425.0, 1428.0, 1425.0, 1422.0, 1422.0, 1425.0, 1423.0, 1421.0, 1418.0, 1419.0, 1421.0, 1423.0, 1425.0, 1426.0, 1426.0, 1427.0, 1425.0, 1427.0, 1426.0, 1428.0, 1430.0, 1428.0, 1429.0, 1428.0, 1428.0, 1427.0, 1426.0, 1427.0, 1425.0, 1424.0, 1422.0, 1423.0, 1424.0, 1424.0, 1425.0, 1426.0, 1427.0, 1428.0, 1431.0, 1430.0, 1432.0, 1429.0, 1428.0, 1431.0, 1428.0, 1427.0, 1424.0, 1423.0, 1422.0, 1422.0, 1422.0, 1424.0, 1427.0, 1428.0, 1429.0, 1430.0, 1431.0, 1430.0, 1431.0, 1429.0, 1426.0, 1422.0, 1422.0, 1424.0, 1426.0, 1427.0, 1427.0, 1427.0, 1425.0, 1425.0, 1424.0, 1424.0, 1425.0, 1423.0, 1424.0, 1425.0, 1428.0, 1427.0, 1427.0, 1427.0, 1431.0, 1431.0, 1426.0, 1421.0, 1423.0, 1423.0, 1419.0, 1419.0, 1421.0, 1423.0, 1422.0, 1424.0, 1426.0, 1427.0]
    },
    "slices": {}
  }
}