{
  "AcquisitionMatrixPE": 72,
  "AcquisitionNumber": 1,
  "AcquisitionTime": "17:13:34.932500",
  "BandwidthPerPixelPhaseEncode": 24.366,
  "BaseResolution": 72,
  "BodyPartExamined": "BRAIN",
  "CoilCombinationMethod": "Sum of Squares",
  "ConsistencyInfo": "N4_VE11C_LATEST_20160120",
  "ConversionSoftware": "dcm2niix",
  "ConversionSoftwareVersion": "v1.0.20220720",
  "DerivedVendorReportedEchoSpacing": 0.000570011,
  "DeviceSerialNumber": "45219",
  "DwellTime": 3.5e-06,
  "EchoTime": 0.03,
  "EchoTrainLength": 72,
  "EffectiveEchoSpacing": 0.000570011,
  "FlipAngle": 80,
  "HeudiconvVersion": "1.1.6",
  "ImageOrientationPatientDICOM": [1, 0, 0, 0, 0.986572, 0.163326],
  "ImageOrientationText": "Tra>Cor(9.4)",
  "ImageType": [
    "ORIGINAL",
    "PRIMARY",
    "M",
    "ND",
    "NORM",
    "MOSAIC"
],
  "ImagingFrequency": 123.182,
  "InPlanePhaseEncodingDirectionDICOM": "COL",
  "InstitutionAddress": "First Avenue 660,New York,NYC,US,10016",
  "InstitutionName": "NYU LANGONE CBI",
  "InstitutionalDepartmentName": "Department",
  "MRAcquisitionType": "2D",
  "MagneticFieldStrength": 3,
  "Manufacturer": "Siemens",
  "ManufacturersModelName": "Skyra",
  "MatrixCoilMode": "SENSE",
  "Modality": "MR",
  "NonlinearGradientCorrection": false,
  "PartialFourier": 1,
  "PatientPosition": "HFS",
  "PercentPhaseFOV": 100,
  "PercentSampling": 100,
  "PhaseEncodingDirection": "j-",
  "PhaseEncodingSteps": 72,
  "PhaseResolution": 1,
  "PixelBandwidth": 1985,
  "ProcedureStepDescription": "MRI BRAIN WITHOUT IV CONTRAST",
  "ProtocolName": "REST_2",
  "PulseSequenceDetails": "%SiemensSeq%\\ep2d_bold",
  "ReceiveCoilActiveElements": "HE1-4",
  "ReceiveCoilName": "HeadNeck_20",
  "ReconMatrixPE": 72,
  "RepetitionTime": 2.5,
  "SAR": 0.143719,
  "ScanOptions": "FS",
  "ScanningSequence": "EP",
  "SequenceName": "*epfid2d1_72",
  "SequenceVariant": "SK",
  "SeriesDescription": "REST_2",
  "SeriesNumber": 14,
  "ShimSetting": [-903, -7047, 5131, 480, -240, 169, 431, -188],
  "SliceThickness": 3,
  "SliceTiming": [1.24, 0, 1.305, 0.065, 1.37, 0.13, 1.435, 0.195, 1.5, 0.26, 1.5675, 0.3275, 1.6325, 0.3925, 1.6975, 0.4575, 1.7625, 0.5225, 1.8275, 0.5875, 1.8925, 0.6525, 1.9575, 0.7175, 2.0225, 0.7825, 2.0875, 0.8475, 2.1525, 0.915, 2.22, 0.98, 2.285, 1.045, 2.35, 1.11, 2.415, 1.175],
  "SoftwareVersions": "syngo MR E11",
  "SpacingBetweenSlices": 3,
  "StationName": "MRC45219",
  "TaskName": "rest",
  "TotalReadoutTime": 0.0404708,
  "TxRefAmp": 421.773,
  "dcmmeta_affine": [
    [-3.0, 0.0, 0.0, 108.0],
    [0.0, 2.959716558456421, 0.4899778664112091, -114.2078628540039],
    [0.0, -0.4899778664112091, 2.959716320037842, -10.376914024353027],
    [0.0, 0.0, 0.0, 1.0]
],
  "dcmmeta_reorient_transform": [
    [0.0, -1.0, 0.0, 71.0],
    [1.0, 0.0, 0.0, 0.0],
    [0.0, 0.0, 1.0, 0.0],
    [0.0, 0.0, 0.0, 1.0]
],
  "dcmmeta_shape": [72, 72, 38, 122],
  "dcmmeta_slice_dim": 2,
  "dcmmeta_version": 0.6,
  "global": {
    "const": {
      "AcquisitionMatrix": [72, 0, 0, 72],
      "AngioFlag": "N",
      "BitsAllocated": 16,
      "BitsStored": 12,
      "BodyPartExamined": "BRAIN",
      "Columns": 504,
      "CountryOfResidence": "United States of America [1]",
      "EchoNumbers": 1,
      "EchoTime": 30.0,
      "EchoTrainLength": 72,
      "FlipAngle": 80.0,
      "HighBit": 11,
      "ImageOrientationPatient": [1.0, 0.0, 0.0, 0.0, 0.98657216211243, 0.16332595918836],
      "ImagePositionPatient": [-756.0, -735.2307652885, -151.00056535941],
      "ImageType": [
        "ORIGINAL",
        "PRIMARY",
        "M",
        "ND",
        "NORM",
        "MOSAIC"
],
      "ImagedNucleus": "1H",
      "ImagingFrequency": 123.18195,
      "InPlanePhaseEncodingDirection": "COL",
      "MRAcquisitionType": "2D",
      "MagneticFieldStrength": 3.0,
      "Manufacturer": "SIEMENS",
      "ManufacturerModelName": "Skyra",
      "Modality": "MR",
      "NumberOfAverages": 1.0,
      "NumberOfPhaseEncodingSteps": 72,
      "PercentPhaseFieldOfView": 100.0,
      "PercentSampling": 100.0,
      "PerformedProcedureStepStartTime": "164247.712000",
      "PhotometricInterpretation": "MONOCHROME2",
      "PixelBandwidth": 1985.0,
      "PixelRepresentation": 0,
      "PixelSpacing": [3.0, 3.0],
      "PregnancyStatus": 4,
      "ProcedureCodeSequence": [
        {
          "CodeMeaning": "MRI BRAIN WITHOUT IV CONTRAST",
          "CodeValue": "IMG269",
          "CodingSchemeDesignator": "L"
        }
],
      "ProtocolName": "REST_2",
      "RepetitionTime": 2500.0,
      "RequestAttributesSequence": [
        {
          "RequestedProcedureID": "305297745",
          "ScheduledProcedureStepDescription": "MRI BRAIN WITHOUT IV CONTRAST",
          "ScheduledProcedureStepID": "E9130836",
          "ScheduledProtocolCodeSequence": [
            {
              "CodeMeaning": "MRI BRAIN WITHOUT IV CONTRAST",
              "CodeValue": "651061",
              "CodingSchemeDesignator": "L"
            }
]
        }
],
      "RequestedProcedureCodeSequence": [
        {
          "CodeMeaning": "MRI BRAIN WITHOUT IV CONTRAST",
          "CodeValue": "IMG269",
          "CodingSchemeDesignator": "L"
        }
],
      "Rows": 504,
      "SAR": 0.1437192982116,
      "SamplesPerPixel": 1,
      "ScanOptions": "FS",
      "ScanningSequence": "EP",
      "SequenceName": "*epfid2d1_72",
      "SequenceVariant": "SK",
      "SeriesDescription": "REST_2",
      "SeriesNumber": 14,
      "SeriesTime": "171346.587000",
      "SliceLocation": -28.890684281299,
      "SliceThickness": 3.0,
      "SmallestImagePixelValue": 0,
      "SmokingStatus": "UNKNOWN",
      "SoftwareVersions": "syngo MR E11",
      "SpacingBetweenSlices": 2.9999999520938,
      "SpecificCharacterSet": "ISO_IR 100",
      "StudyTime": "164247.560000",
      "TransmitCoilName": "Body",
      "VariableFlipAngleFlag": "N",
      "WindowCenterWidthExplanation": "Algo1",
      "dBdt": 0.0},
    "slices": {}
  },
  "time": {
    "samples": {
      "AcquisitionNumber": [1, 2, 3, 4, 5, 6, 7, 8, 9, 10, 11, 12, 13, 14, 15, 16, 17, 18, 19, 20, 21, 22, 23, 24, 25, 26, 27, 28, 29, 30, 31, 32, 33, 34, 35, 36, 37, 38, 39, 40, 41, 42, 43, 44, 45, 46, 47, 48, 49, 50, 51, 52, 53, 54, 55, 56, 57, 58, 59, 60, 61, 62, 63, 64, 65, 66, 67, 68, 69, 70, 71, 72, 73, 74, 75, 76, 77, 78, 79, 80, 81, 82, 83, 84, 85, 86, 87, 88, 89, 90, 91, 92, 93, 94, 95, 96, 97, 98, 99, 100, 101, 102, 103, 104, 105, 106, 107, 108, 109, 110, 111, 112, 113, 114, 115, 116, 117, 118, 119, 120, 121, 122],
      "AcquisitionTime": ["171334.932500", "171337.432500", "171339.932500", "171342.432500", "171344.932500", "171347.432500", "171349.932500", "171352.432500", "171354.932500", "171357.432500", "171359.932500", "171402.432500", "171404.932500", "171407.432500", "171409.932500", "171412.432500", "171414.932500", "171417.432500", "171419.932500", "171422.432500", "171424.932500", "171427.432500", "171429.932500", "171432.432500", "171434.932500", "171437.432500", "171439.932500", "171442.432500", "171444.932500", "171447.432500", "171449.932500", "171452.432500", "171454.932500", "171457.432500", "171459.932500", "171502.432500", "171504.932500", "171507.432500", "171509.932500", "171512.432500", "171514.932500", "171517.432500", "171519.932500", "171522.432500", "171524.932500", "171527.432500", "171529.932500", "171532.432500", "171534.932500", "171537.432500", "171539.932500", "171542.432500", "171544.932500", "171547.432500", "171549.932500", "171552.432500", "171554.932500", "171557.432500", "171559.932500", "171602.432500", "171604.932500", "171607.432500", "171609.932500", "171612.432500", "171614.932500", "171617.432500", "171619.932500", "171622.432500", "171624.932500", "171627.432500", "171629.932500", "171632.432500", "171634.932500", "171637.432500", "171639.932500", "171642.432500", "171644.932500", "171647.432500", "171649.932500", "171652.432500", "171654.932500", "171657.432500", "171659.932500", "171702.432500", "171704.932500", "171707.432500", "171709.932500", "171712.432500", "171714.932500", "171717.432500", "171719.932500", "171722.432500", "171724.932500", "171727.432500", "171729.932500", "171732.432500", "171734.932500", "171737.432500", "171739.932500", "171742.432500", "171744.932500", "171747.432500", "171749.932500", "171752.432500", "171754.932500", "171757.432500", "171759.932500", "171802.432500", "171804.932500", "171807.432500", "171809.932500", "171812.432500", "171814.932500", "171817.432500", "171819.932500", "171822.432500", "171824.932500", "171827.432500", "171829.932500", "171832.432500", "171834.932500", "171837.432500"],
      "ContentTime": ["171346.591000", "171346.595000", "171346.597000", "171346.600000", "171446.587000", "171446.590000", "171446.592000", "171446.595000", "171446.598000", "171446.600000", "171446.610000", "171446.613000", "171446.616000", "171446.618000", "171446.621000", "171446.624000", "171446.628000", "171446.631000", "171446.634000", "171446.636000", "171446.639000", "171446.642000", "171446.644000", "171446.647000", "171446.650000", "171446.652000", "171446.655000", "171446.658000", "171546.586000", "171546.589000", "171546.592000", "171546.594000", "171546.597000", "171546.600000", "171546.603000", "171546.605000", "171546.608000", "171546.610000", "171546.613000", "171546.616000", "171546.619000", "171546.621000", "171546.625000", "171546.628000", "171546.631000", "171546.633000", "171546.637000", "171546.639000", "171546.642000", "171546.644000", "171546.647000", "171546.650000", "171646.587000", "171646.590000", "171646.592000", "171646.595000", "171646.601000", "171646.604000", "171646.607000", "171646.610000", "171646.612000", "171646.615000", "171646.618000", "171646.621000", "171646.624000", "171646.628000", "171646.630000", "171646.633000", "171646.636000", "171646.638000", "171646.641000", "171646.644000", "171646.646000", "171646.649000", "171646.652000", "171646.654000", "171746.586000", "171746.589000", "171746.592000", "171746.594000", "171746.597000", "171746.600000", "171746.602000", "171746.605000", "171746.608000", "171746.610000", "171746.613000", "171746.616000", "171746.619000", "171746.622000", "171746.626000", "171746.628000", "171746.631000", "171746.634000", "171746.637000", "171746.639000", "171746.642000", "171746.645000", "171746.647000", "171746.650000", "171839.226000", "171839.229000", "171839.240000", "171839.243000", "171839.246000", "171839.248000", "171839.251000", "171839.254000", "171839.257000", "171839.263000", "171839.267000", "171839.271000", "171839.274000", "171839.278000", "171839.284000", "171839.288000", "171839.290000", "171839.293000", "171839.311000", "171839.314000", "171839.317000", "171839.320000"],
      "InstanceCreationTime": ["171346.591000", "171346.595000", "171346.597000", "171346.600000", "171446.587000", "171446.590000", "171446.592000", "171446.595000", "171446.598000", "171446.600000", "171446.610000", "171446.613000", "171446.616000", "171446.618000", "171446.621000", "171446.624000", "171446.628000", "171446.631000", "171446.634000", "171446.636000", "171446.639000", "171446.642000", "171446.644000", "171446.647000", "171446.650000", "171446.652000", "171446.655000", "171446.658000", "171546.586000", "171546.589000", "171546.592000", "171546.594000", "171546.597000", "171546.600000", "171546.603000", "171546.605000", "171546.608000", "171546.610000", "171546.613000", "171546.616000", "171546.619000", "171546.621000", "171546.625000", "171546.628000", "171546.631000", "171546.633000", "171546.637000", "171546.639000", "171546.642000", "171546.644000", "171546.647000", "171546.650000", "171646.587000", "171646.590000", "171646.592000", "171646.595000", "171646.601000", "171646.604000", "171646.607000", "171646.610000", "171646.612000", "171646.615000", "171646.618000", "171646.621000", "171646.624000", "171646.628000", "171646.630000", "171646.633000", "171646.636000", "171646.638000", "171646.641000", "171646.644000", "171646.646000", "171646.649000", "171646.652000", "171646.654000", "171746.586000", "171746.589000", "171746.592000", "171746.594000", "171746.597000", "171746.600000", "171746.602000", "171746.605000", "171746.608000", "171746.610000", "171746.613000", "171746.616000", "171746.619000", "171746.622000", "171746.626000", "171746.628000", "171746.631000", "171746.634000", "171746.637000", "171746.639000", "171746.642000", "171746.645000", "171746.647000", "171746.650000", "171839.226000", "171839.229000", "171839.240000", "171839.243000", "171839.246000", "171839.248000", "171839.251000", "171839.254000", "171839.257000", "171839.263000", "171839.267000", "171839.271000", "171839.274000", "171839.278000", "171839.284000", "171839.288000", "171839.290000", "171839.293000", "171839.311000", "171839.314000", "171839.317000", "171839.320000"],
      "InstanceNumber": [1, 2, 3, 4, 5, 6, 7, 8, 9, 10, 11, 12, 13, 14, 15, 16, 17, 18, 19, 20, 21, 22, 23, 24, 25, 26, 27, 28, 29, 30, 31, 32, 33, 34, 35, 36, 37, 38, 39, 40, 41, 42, 43, 44, 45, 46, 47, 48, 49, 50, 51, 52, 53, 54, 55, 56, 57, 58, 59, 60, 61, 62, 63, 64, 65, 66, 67, 68, 69, 70, 71, 72, 73, 74, 75, 76, 77, 78, 79, 80, 81, 82, 83, 84, 85, 86, 87, 88, 89, 90, 91, 92, 93, 94, 95, 96, 97, 98, 99, 100, 101, 102, 103, 104, 105, 106, 107, 108, 109, 110, 111, 112, 113, 114, 115, 116, 117, 118, 119, 120, 121, 122],
      "LargestImagePixelValue": [2006, 1948, 2086, 2478, 1951, 2493, 1995, 1964, 2011, 2101, 2017, 1997, 2211, 2504, 2478, 2275, 2167, 2347, 2276, 1947, 1931, 2245, 2329, 1939, 2672, 2064, 2071, 2021, 1931, 1994, 1949, 1900, 1959, 2604, 1948, 2265, 2360, 1950, 1950, 1945, 1957, 1897, 2356, 2092, 1939, 2173, 1951, 1933, 1895, 1930, 2116, 1955, 1941, 1928, 1977, 1924, 2164, 1922, 1935, 2379, 2682, 1947, 2200, 2382, 1918, 1945, 1923, 1984, 1942, 1936, 1923, 1958, 1930, 2345, 1905, 1955, 2661, 1954, 1929, 2068, 2049, 2450, 2335, 1936, 1927, 2581, 1965, 1873, 1941, 1938, 1966, 1908, 2239, 1980, 1955, 1848, 1878, 1906, 2299, 2115, 1938, 2590, 1962, 1858, 1983, 1935, 2306, 2058, 1934, 1958, 1984, 1873, 1954, 1924, 2249, 1955, 1968, 1945, 2504, 1946, 1933, 2278],
      "WindowCenter": [674.0, 671.0, 671.0, 672.0, 673.0, 674.0, 672.0, 672.0, 673.0, 672.0, 673.0, 674.0, 674.0, 674.0, 674.0, 674.0, 673.0, 674.0, 673.0, 673.0, 672.0, 672.0, 672.0, 670.0, 671.0, 671.0, 671.0, 671.0, 671.0, 671.0, 670.0, 670.0, 671.0, 672.0, 671.0, 672.0, 672.0, 672.0, 672.0, 671.0, 672.0, 672.0, 673.0, 672.0, 672.0, 672.0, 671.0, 671.0, 671.0, 671.0, 672.0, 671.0, 671.0, 671.0, 672.0, 671.0, 674.0, 673.0, 672.0, 673.0, 672.0, 671.0, 671.0, 670.0, 668.0, 669.0, 670.0, 670.0, 670.0, 671.0, 671.0, 671.0, 672.0, 673.0, 672.0, 672.0, 673.0, 671.0, 672.0, 672.0, 671.0, 673.0, 673.0, 672.0, 672.0, 673.0, 672.0, 673.0, 673.0, 672.0, 672.0, 671.0, 673.0, 672.0, 673.0, 671.0, 671.0, 671.0, 672.0, 671.0, 671.0, 673.0, 672.0, 672.0, 673.0, 672.0, 673.0, 671.0, 670.0, 671.0, 672.0, 671.0, 673.0, 672.0, 673.0, 672.0, 673.0, 672.0, 672.0, 670.0, 670.0, 672.0],
      "WindowWidth": [1435.0, 1428.0, 1427.0, 1429.0, 1431.0, 1433.0, 1430.0, 1430.0, 1431.0, 1429.0, 1431.0, 1433.0, 1433.0, 1432.0, 1432.0, 1433.0, 1432.0, 1433.0, 1431.0, 1430.0, 1428.0, 1430.0, 1429.0, 1425.0, 1426.0, 1427.0, 1426.0, 1427.0, 1426.0, 1426.0, 1425.0, 1425.0, 1427.0, 1429.0, 1427.0, 1428.0, 1429.0, 1429.0, 1428.0, 1427.0, 1428.0, 1430.0, 1431.0, 1430.0, 1428.0, 1428.0, 1427.0, 1427.0, 1428.0, 1427.0, 1428.0, 1427.0, 1427.0, 1426.0, 1428.0, 1427.0, 1433.0, 1432.0, 1430.0, 1432.0, 1429.0, 1426.0, 1427.0, 1424.0, 1420.0, 1423.0, 1423.0, 1425.0, 1425.0, 1426.0, 1426.0, 1427.0, 1429.0, 1431.0, 1429.0, 1430.0, 1431.0, 1427.0, 1430.0, 1430.0, 1427.0, 1430.0, 1430.0, 1428.0, 1429.0, 1429.0, 1430.0, 1431.0, 1431.0, 1430.0, 1429.0, 1427.0, 1430.0, 1428.0, 1430.0, 1426.0, 1428.0, 1426.0, 1429.0, 1426.0, 1425.0, 1430.0, 1429.0, 1428.0, 1432.0, 1428.0, 1430.0, 1425.0, 1424.0, 1425.0, 1427.0, 1427.0, 1430.0, 1428.0, 1431.0, 1429.0, 1431.0, 1429.0, 1429.0, 1425.0, 1424.0, 1428.0]
    },
    "slices": {}
  }
}