{
  "AcquisitionMatrixPE": 72,
  "AcquisitionNumber": 1,
  "AcquisitionTime": "16:54:53.660000",
  "BandwidthPerPixelPhaseEncode": 24.366,
  "BaseResolution": 72,
  "BodyPartExamined": "BRAIN",
  "CoilCombinationMethod": "Sum of Squares",
  "ConsistencyInfo": "N4_VE11C_LATEST_20160120",
  "ConversionSoftware": "dcm2niix",
  "ConversionSoftwareVersion": "v1.0.20220720",
  "DerivedVendorReportedEchoSpacing": 0.000570011,
  "DeviceSerialNumber": "45219",
  "DwellTime": 3.5e-06,
  "EchoTime": 0.03,
  "EchoTrainLength": 72,
  "EffectiveEchoSpacing": 0.000570011,
  "FlipAngle": 80,
  "HeudiconvVersion": "1.1.6",
  "ImageOrientationPatientDICOM": [1, 0, 0, 0, 0.986572, 0.163326],
  "ImageOrientationText": "Tra>Cor(9.4)",
  "ImageType": [
    "ORIGINAL",
    "PRIMARY",
    "M",
    "ND",
    "NORM",
    "MOSAIC"
],
  "ImagingFrequency": 123.182,
  "InPlanePhaseEncodingDirectionDICOM": "COL",
  "InstitutionAddress": "First Avenue 660,New York,NYC,US,10016",
  "InstitutionName": "NYU LANGONE CBI",
  "InstitutionalDepartmentName": "Department",
  "MRAcquisitionType": "2D",
  "MagneticFieldStrength": 3,
  "Manufacturer": "Siemens",
  "ManufacturersModelName": "Skyra",
  "MatrixCoilMode": "SENSE",
  "Modality": "MR",
  "NonlinearGradientCorrection": false,
  "PartialFourier": 1,
  "PatientPosition": "HFS",
  "PercentPhaseFOV": 100,
  "PercentSampling": 100,
  "PhaseEncodingDirection": "j-",
  "PhaseEncodingSteps": 72,
  "PhaseResolution": 1,
  "PixelBandwidth": 1985,
  "ProcedureStepDescription": "MRI BRAIN WITHOUT IV CONTRAST",
  "ProtocolName": "REST_1",
  "PulseSequenceDetails": "%SiemensSeq%\\ep2d_bold",
  "ReceiveCoilActiveElements": "HE1-4",
  "ReceiveCoilName": "HeadNeck_20",
  "ReconMatrixPE": 72,
  "RepetitionTime": 2.5,
  "SAR": 0.143719,
  "ScanOptions": "FS",
  "ScanningSequence": "EP",
  "SequenceName": "*epfid2d1_72",
  "SequenceVariant": "SK",
  "SeriesDescription": "REST_1",
  "SeriesNumber": 8,
  "ShimSetting": [-903, -7047, 5131, 480, -240, 169, 431, -188],
  "SliceThickness": 3,
  "SliceTiming": [1.24, 0, 1.305, 0.065, 1.37, 0.1325, 1.4375, 0.1975, 1.5025, 0.2625, 1.5675, 0.3275, 1.6325, 0.3925, 1.6975, 0.4575, 1.7625, 0.5225, 1.8275, 0.5875, 1.8925, 0.6525, 1.9575, 0.7175, 2.025, 0.785, 2.09, 0.85, 2.155, 0.915, 2.22, 0.98, 2.285, 1.045, 2.35, 1.11, 2.415, 1.175],
  "SoftwareVersions": "syngo MR E11",
  "SpacingBetweenSlices": 3,
  "StationName": "MRC45219",
  "TaskName": "rest",
  "TotalReadoutTime": 0.0404708,
  "TxRefAmp": 421.773,
  "dcmmeta_affine": [
    [-3.0, 0.0, 0.0, 108.0],
    [0.0, 2.959716558456421, 0.4899778664112091, -114.2078628540039],
    [0.0, -0.4899778664112091, 2.959716320037842, -10.376914024353027],
    [0.0, 0.0, 0.0, 1.0]
],
  "dcmmeta_reorient_transform": [
    [0.0, -1.0, 0.0, 71.0],
    [1.0, 0.0, 0.0, 0.0],
    [0.0, 0.0, 1.0, 0.0],
    [0.0, 0.0, 0.0, 1.0]
],
  "dcmmeta_shape": [72, 72, 38, 122],
  "dcmmeta_slice_dim": 2,
  "dcmmeta_version": 0.6,
  "global": {
    "const": {
      "AcquisitionMatrix": [72, 0, 0, 72],
      "AngioFlag": "N",
      "BitsAllocated": 16,
      "BitsStored": 12,
      "BodyPartExamined": "BRAIN",
      "Columns": 504,
      "CountryOfResidence": "United States of America [1]",
      "EchoNumbers": 1,
      "EchoTime": 30.0,
      "EchoTrainLength": 72,
      "FlipAngle": 80.0,
      "HighBit": 11,
      "ImageOrientationPatient": [1.0, 0.0, 0.0, 0.0, 0.98657216211243, 0.16332595918836],
      "ImagePositionPatient": [-756.0, -735.2307652885, -151.00056535941],
      "ImageType": [
        "ORIGINAL",
        "PRIMARY",
        "M",
        "ND",
        "NORM",
        "MOSAIC"
],
      "ImagedNucleus": "1H",
      "ImagingFrequency": 123.18184,
      "InPlanePhaseEncodingDirection": "COL",
      "MRAcquisitionType": "2D",
      "MagneticFieldStrength": 3.0,
      "Manufacturer": "SIEMENS",
      "ManufacturerModelName": "Skyra",
      "Modality": "MR",
      "NumberOfAverages": 1.0,
      "NumberOfPhaseEncodingSteps": 72,
      "PercentPhaseFieldOfView": 100.0,
      "PercentSampling": 100.0,
      "PerformedProcedureStepStartTime": "164247.712000",
      "PhotometricInterpretation": "MONOCHROME2",
      "PixelBandwidth": 1985.0,
      "PixelRepresentation": 0,
      "PixelSpacing": [3.0, 3.0],
      "PregnancyStatus": 4,
      "ProcedureCodeSequence": [
        {
          "CodeMeaning": "MRI BRAIN WITHOUT IV CONTRAST",
          "CodeValue": "IMG269",
          "CodingSchemeDesignator": "L"
        }
],
      "ProtocolName": "REST_1",
      "RepetitionTime": 2500.0,
      "RequestAttributesSequence": [
        {
          "RequestedProcedureID": "305297745",
          "ScheduledProcedureStepDescription": "MRI BRAIN WITHOUT IV CONTRAST",
          "ScheduledProcedureStepID": "E9130836",
          "ScheduledProtocolCodeSequence": [
            {
              "CodeMeaning": "MRI BRAIN WITHOUT IV CONTRAST",
              "CodeValue": "651061",
              "CodingSchemeDesignator": "L"
            }
]
        }
],
      "RequestedProcedureCodeSequence": [
        {
          "CodeMeaning": "MRI BRAIN WITHOUT IV CONTRAST",
          "CodeValue": "IMG269",
          "CodingSchemeDesignator": "L"
        }
],
      "Rows": 504,
      "SAR": 0.1437192982116,
      "SamplesPerPixel": 1,
      "ScanOptions": "FS",
      "ScanningSequence": "EP",
      "SequenceName": "*epfid2d1_72",
      "SequenceVariant": "SK",
      "SeriesDescription": "REST_1",
      "SeriesNumber": 8,
      "SeriesTime": "165511.697000",
      "SliceLocation": -28.890684281299,
      "SliceThickness": 3.0,
      "SmallestImagePixelValue": 0,
      "SmokingStatus": "UNKNOWN",
      "SoftwareVersions": "syngo MR E11",
      "SpacingBetweenSlices": 2.9999999520938,
      "SpecificCharacterSet": "ISO_IR 100",
      "StudyTime": "164247.560000",
      "TransmitCoilName": "Body",
      "VariableFlipAngleFlag": "N",
      "WindowCenterWidthExplanation": "Algo1",
      "dBdt": 0.0},
    "slices": {}
  },
  "time": {
    "samples": {
      "AcquisitionNumber": [1, 2, 3, 4, 5, 6, 7, 8, 9, 10, 11, 12, 13, 14, 15, 16, 17, 18, 19, 20, 21, 22, 23, 24, 25, 26, 27, 28, 29, 30, 31, 32, 33, 34, 35, 36, 37, 38, 39, 40, 41, 42, 43, 44, 45, 46, 47, 48, 49, 50, 51, 52, 53, 54, 55, 56, 57, 58, 59, 60, 61, 62, 63, 64, 65, 66, 67, 68, 69, 70, 71, 72, 73, 74, 75, 76, 77, 78, 79, 80, 81, 82, 83, 84, 85, 86, 87, 88, 89, 90, 91, 92, 93, 94, 95, 96, 97, 98, 99, 100, 101, 102, 103, 104, 105, 106, 107, 108, 109, 110, 111, 112, 113, 114, 115, 116, 117, 118, 119, 120, 121, 122],
      "AcquisitionTime": ["165453.660000", "165456.160000", "165458.660000", "165501.160000", "165503.660000", "165506.160000", "165508.660000", "165511.160000", "165513.660000", "165516.160000", "165518.660000", "165521.160000", "165523.660000", "165526.160000", "165528.660000", "165531.160000", "165533.660000", "165536.160000", "165538.660000", "165541.160000", "165543.660000", "165546.160000", "165548.660000", "165551.160000", "165553.660000", "165556.160000", "165558.660000", "165601.160000", "165603.660000", "165606.160000", "165608.660000", "165611.160000", "165613.660000", "165616.160000", "165618.660000", "165621.160000", "165623.660000", "165626.160000", "165628.660000", "165631.160000", "165633.660000", "165636.160000", "165638.660000", "165641.160000", "165643.660000", "165646.160000", "165648.660000", "165651.160000", "165653.660000", "165656.160000", "165658.660000", "165701.160000", "165703.660000", "165706.160000", "165708.660000", "165711.160000", "165713.660000", "165716.160000", "165718.660000", "165721.160000", "165723.660000", "165726.160000", "165728.660000", "165731.160000", "165733.660000", "165736.160000", "165738.660000", "165741.160000", "165743.660000", "165746.160000", "165748.660000", "165751.160000", "165753.660000", "165756.160000", "165758.660000", "165801.160000", "165803.660000", "165806.160000", "165808.660000", "165811.160000", "165813.660000", "165816.160000", "165818.660000", "165821.160000", "165823.660000", "165826.160000", "165828.660000", "165831.160000", "165833.660000", "165836.160000", "165838.660000", "165841.160000", "165843.660000", "165846.160000", "165848.660000", "165851.160000", "165853.660000", "165856.160000", "165858.660000", "165901.160000", "165903.660000", "165906.160000", "165908.660000", "165911.160000", "165913.660000", "165916.160000", "165918.660000", "165921.160000", "165923.660000", "165926.160000", "165928.660000", "165931.160000", "165933.660000", "165936.160000", "165938.660000", "165941.160000", "165943.660000", "165946.160000", "165948.660000", "165951.160000", "165953.660000", "165956.160000"],
      "ContentTime": ["165511.701000", "165511.704000", "165511.707000", "165511.710000", "165511.713000", "165511.724000", "165511.727000", "165611.696000", "165611.699000", "165611.701000", "165611.704000", "165611.707000", "165611.710000", "165611.713000", "165611.716000", "165611.719000", "165611.721000", "165611.724000", "165611.727000", "165611.730000", "165611.732000", "165611.735000", "165611.738000", "165611.740000", "165611.743000", "165611.746000", "165611.748000", "165611.751000", "165611.753000", "165611.756000", "165611.759000", "165711.696000", "165711.699000", "165711.702000", "165711.705000", "165711.707000", "165711.710000", "165711.713000", "165711.716000", "165711.719000", "165711.721000", "165711.724000", "165711.727000", "165711.730000", "165711.732000", "165711.735000", "165711.738000", "165711.740000", "165711.743000", "165711.746000", "165711.748000", "165711.751000", "165711.753000", "165711.756000", "165711.759000", "165811.696000", "165811.698000", "165811.701000", "165811.704000", "165811.707000", "165811.710000", "165811.713000", "165811.715000", "165811.718000", "165811.721000", "165811.723000", "165811.726000", "165811.729000", "165811.731000", "165811.734000", "165811.737000", "165811.739000", "165811.742000", "165811.745000", "165811.748000", "165811.750000", "165811.753000", "165811.756000", "165811.758000", "165911.696000", "165911.698000", "165911.708000", "165911.711000", "165911.714000", "165911.717000", "165911.720000", "165911.722000", "165911.725000", "165911.727000", "165911.730000", "165911.733000", "165911.736000", "165911.738000", "165911.741000", "165911.744000", "165911.746000", "165911.749000", "165911.752000", "165911.754000", "165911.757000", "165911.760000", "165911.762000", "165911.765000", "165958.214000", "165958.217000", "165958.219000", "165958.222000", "165958.225000", "165958.228000", "165958.230000", "165958.233000", "165958.236000", "165958.238000", "165958.241000", "165958.244000", "165958.251000", "165958.256000", "165958.260000", "165958.262000", "165958.266000", "165958.269000", "165958.273000"],
      "InstanceCreationTime": ["165511.701000", "165511.704000", "165511.707000", "165511.710000", "165511.713000", "165511.724000", "165511.727000", "165611.696000", "165611.699000", "165611.701000", "165611.704000", "165611.707000", "165611.710000", "165611.713000", "165611.716000", "165611.719000", "165611.721000", "165611.724000", "165611.727000", "165611.730000", "165611.732000", "165611.735000", "165611.738000", "165611.740000", "165611.743000", "165611.746000", "165611.748000", "165611.751000", "165611.753000", "165611.756000", "165611.759000", "165711.696000", "165711.699000", "165711.702000", "165711.705000", "165711.707000", "165711.710000", "165711.713000", "165711.716000", "165711.719000", "165711.721000", "165711.724000", "165711.727000", "165711.730000", "165711.732000", "165711.735000", "165711.738000", "165711.740000", "165711.743000", "165711.746000", "165711.748000", "165711.751000", "165711.753000", "165711.756000", "165711.759000", "165811.696000", "165811.698000", "165811.701000", "165811.704000", "165811.707000", "165811.710000", "165811.713000", "165811.715000", "165811.718000", "165811.721000", "165811.723000", "165811.726000", "165811.729000", "165811.731000", "165811.734000", "165811.737000", "165811.739000", "165811.742000", "165811.745000", "165811.748000", "165811.750000", "165811.753000", "165811.756000", "165811.758000", "165911.696000", "165911.698000", "165911.708000", "165911.711000", "165911.714000", "165911.717000", "165911.720000", "165911.722000", "165911.725000", "165911.727000", "165911.730000", "165911.733000", "165911.736000", "165911.738000", "165911.741000", "165911.744000", "165911.746000", "165911.749000", "165911.752000", "165911.754000", "165911.757000", "165911.760000", "165911.762000", "165911.765000", "165958.214000", "165958.217000", "165958.219000", "165958.222000", "165958.225000", "165958.228000", "165958.230000", "165958.233000", "165958.236000", "165958.238000", "165958.241000", "165958.244000", "165958.251000", "165958.256000", "165958.260000", "165958.262000", "165958.266000", "165958.269000", "165958.273000"],
      "InstanceNumber": [1, 2, 3, 4, 5, 6, 7, 8, 9, 10, 11, 12, 13, 14, 15, 16, 17, 18, 19, 20, 21, 22, 23, 24, 25, 26, 27, 28, 29, 30, 31, 32, 33, 34, 35, 36, 37, 38, 39, 40, 41, 42, 43, 44, 45, 46, 47, 48, 49, 50, 51, 52, 53, 54, 55, 56, 57, 58, 59, 60, 61, 62, 63, 64, 65, 66, 67, 68, 69, 70, 71, 72, 73, 74, 75, 76, 77, 78, 79, 80, 81, 82, 83, 84, 85, 86, 87, 88, 89, 90, 91, 92, 93, 94, 95, 96, 97, 98, 99, 100, 101, 102, 103, 104, 105, 106, 107, 108, 109, 110, 111, 112, 113, 114, 115, 116, 117, 118, 119, 120, 121, 122],
      "LargestImagePixelValue": [2111, 2082, 2141, 2034, 1883, 2043, 1934, 2132, 1916, 1892, 1931, 2131, 1943, 2203, 2053, 2094, 1981, 1950, 1925, 1844, 1833, 1956, 1929, 1872, 1857, 1959, 2057, 2075, 1977, 1989, 1939, 1982, 1945, 1968, 2156, 1877, 2080, 2278, 1856, 1867, 2099, 2181, 2024, 2073, 2142, 2077, 1974, 2057, 1985, 1856, 1922, 1912, 2293, 2280, 2194, 2396, 1977, 2107, 1867, 1822, 1862, 1976, 2225, 2212, 2214, 2143, 1839, 1904, 2012, 2190, 1906, 1921, 2179, 2108, 1869, 1887, 1869, 2065, 2195, 1924, 1859, 1832, 1813, 1911, 2330, 1927, 2280, 1887, 2031, 1929, 1905, 2221, 2026, 2163, 1974, 1893, 1888, 2192, 1952, 2199, 1941, 2099, 2176, 1901, 1879, 1894, 2068, 2302, 1830, 1836, 2068, 2041, 2197, 2344, 2246, 2254, 2201, 2040, 2248, 2307, 2092, 2161],
      "WindowCenter": [676.0, 674.0, 673.0, 671.0, 671.0, 671.0, 670.0, 670.0, 671.0, 673.0, 672.0, 673.0, 672.0, 673.0, 672.0, 671.0, 671.0, 673.0, 673.0, 671.0, 673.0, 674.0, 673.0, 671.0, 672.0, 672.0, 672.0, 671.0, 671.0, 671.0, 671.0, 673.0, 672.0, 672.0, 673.0, 672.0, 672.0, 672.0, 670.0, 672.0, 672.0, 672.0, 671.0, 671.0, 672.0, 672.0, 671.0, 672.0, 672.0, 672.0, 673.0, 673.0, 674.0, 673.0, 671.0, 672.0, 670.0, 671.0, 671.0, 672.0, 673.0, 673.0, 673.0, 673.0, 673.0, 672.0, 669.0, 672.0, 672.0, 671.0, 670.0, 671.0, 672.0, 671.0, 669.0, 671.0, 671.0, 671.0, 672.0, 671.0, 669.0, 672.0, 670.0, 672.0, 673.0, 670.0, 672.0, 670.0, 671.0, 671.0, 672.0, 674.0, 673.0, 672.0, 669.0, 669.0, 670.0, 671.0, 670.0, 671.0, 671.0, 672.0, 672.0, 670.0, 671.0, 673.0, 673.0, 673.0, 671.0, 673.0, 674.0, 673.0, 673.0, 673.0, 673.0, 672.0, 673.0, 672.0, 673.0, 673.0, 672.0, 672.0],
      "WindowWidth": [1433.0, 1428.0, 1426.0, 1420.0, 1421.0, 1421.0, 1418.0, 1420.0, 1421.0, 1426.0, 1425.0, 1427.0, 1424.0, 1425.0, 1423.0, 1422.0, 1422.0, 1427.0, 1425.0, 1421.0, 1426.0, 1429.0, 1427.0, 1422.0, 1424.0, 1424.0, 1423.0, 1422.0, 1422.0, 1422.0, 1422.0, 1426.0, 1425.0, 1424.0, 1426.0, 1423.0, 1425.0, 1424.0, 1420.0, 1424.0, 1425.0, 1424.0, 1423.0, 1423.0, 1424.0, 1423.0, 1423.0, 1424.0, 1424.0, 1424.0, 1427.0, 1428.0, 1429.0, 1425.0, 1421.0, 1423.0, 1419.0, 1421.0, 1422.0, 1424.0, 1426.0, 1426.0, 1427.0, 1426.0, 1426.0, 1424.0, 1418.0, 1425.0, 1424.0, 1422.0, 1420.0, 1423.0, 1424.0, 1421.0, 1417.0, 1422.0, 1422.0, 1423.0, 1424.0, 1423.0, 1418.0, 1424.0, 1421.0, 1424.0, 1426.0, 1420.0, 1424.0, 1421.0, 1423.0, 1423.0, 1424.0, 1428.0, 1425.0, 1423.0, 1416.0, 1418.0, 1420.0, 1422.0, 1420.0, 1423.0, 1421.0, 1423.0, 1425.0, 1420.0, 1423.0, 1426.0, 1427.0, 1425.0, 1421.0, 1427.0, 1429.0, 1426.0, 1427.0, 1427.0, 1425.0, 1425.0, 1425.0, 1424.0, 1425.0, 1426.0, 1423.0, 1424.0]
    },
    "slices": {}
  }
}