{
  "AcquisitionMatrixPE": 72,
  "AcquisitionNumber": 1,
  "AcquisitionTime": "17:01:33.862500",
  "BaseResolution": 72,
  "BodyPartExamined": "BRAIN",
  "CoilCombinationMethod": "Sum of Squares",
  "ConsistencyInfo": "N4_VE11C_LATEST_20160120",
  "ConversionSoftware": "dcm2niix",
  "ConversionSoftwareVersion": "v1.0.20220720",
  "DeviceSerialNumber": "45219",
  "DwellTime": 2.39e-05,
  "EchoNumber": 2,
  "EchoTime": 0.00738,
  "EchoTime1": 0.00492,
  "EchoTime2": 0.00738,
  "FlipAngle": 60,
  "HeudiconvVersion": "1.1.6",
  "ImageOrientationPatientDICOM": [0.999482, -0.0321678, 0.000743703, 0.03141, 0.980429, 0.194354],
  "ImageOrientationText": "Tra>Cor(11.2)>Sag(0.4)",
  "ImageType": [
    "ORIGINAL",
    "PRIMARY",
    "P",
    "ND",
    "PHASE"
],
  "ImagingFrequency": 123.182,
  "InPlanePhaseEncodingDirectionDICOM": "ROW",
  "InstitutionAddress": "First Avenue 660,New York,NYC,US,10016",
  "InstitutionName": "NYU LANGONE CBI",
  "InstitutionalDepartmentName": "Department",
  "MRAcquisitionType": "2D",
  "MagneticFieldStrength": 3,
  "Manufacturer": "Siemens",
  "ManufacturersModelName": "Skyra",
  "MatrixCoilMode": "SENSE",
  "Modality": "MR",
  "MultibandAccelerationFactor": 2,
  "NonlinearGradientCorrection": false,
  "PartialFourier": 1,
  "PatientPosition": "HFS",
  "PercentPhaseFOV": 100,
  "PercentSampling": 100,
  "PhaseEncodingDirection": "i",
  "PhaseEncodingSteps": 72,
  "PhaseResolution": 1,
  "PixelBandwidth": 290,
  "ProcedureStepDescription": "MRI BRAIN WITHOUT IV CONTRAST",
  "ProtocolName": "gre_fm_bold",
  "PulseSequenceDetails": "%SiemensSeq%\\gre_field_mapping",
  "ReceiveCoilActiveElements": "HE1-4",
  "ReceiveCoilName": "HeadNeck_20",
  "ReconMatrixPE": 72,
  "RepetitionTime": 0.444,
  "SAR": 0.194302,
  "ScanningSequence": "GR",
  "SequenceName": "*fm2d2r",
  "SequenceVariant": "SP",
  "SeriesDescription": "gre_fm_bold",
  "SeriesNumber": 4,
  "ShimSetting": [-893, -7043, 5058, 454, -184, 51, 313, -199],
  "SliceThickness": 3,
  "SliceTiming": [0.21875, 0, 0.23438, 0.01562, 0.25, 0.03125, 0.25, 0.03125, 0.26562, 0.04688, 0.28125, 0.0625, 0.29688, 0.0625, 0.29688, 0.07812, 0.3125, 0.09375, 0.32812, 0.10938, 0.34375, 0.10938, 0.35938, 0.125, 0.35938, 0.14062, 0.375, 0.15625, 0.39062, 0.17188, 0.39062, 0.17188, 0.40625, 0.1875, 0.42188, 0.20312, 0.4375, 0.21875],
  "SoftwareVersions": "syngo MR E11",
  "SpacingBetweenSlices": 3,
  "StationName": "MRC45219",
  "TxRefAmp": 435.014,
  "dcmmeta_affine": [
    [-2.9984467029571533, 0.09422998130321503, 0.020943284034729004, 103.44425201416016],
    [0.09650353342294693, 2.9412853717803955, 0.5826892852783203, -118.09358215332031],
    [0.0022311091888695955, -0.5830613374710083, 2.9427871704101562, -16.730186462402344],
    [0.0, 0.0, 0.0, 1.0]
],
  "dcmmeta_reorient_transform": [
    [0.0, -1.0, 0.0, 71.0],
    [1.0, 0.0, 0.0, 0.0],
    [0.0, 0.0, -1.0, 37.0],
    [0.0, 0.0, 0.0, 1.0]
],
  "dcmmeta_shape": [72, 72, 38],
  "dcmmeta_slice_dim": 2,
  "dcmmeta_version": 0.6,
  "global": {
    "const": {
      "AcquisitionMatrix": [0, 72, 72, 0],
      "AcquisitionNumber": 1,
      "AngioFlag": "N",
      "BitsAllocated": 16,
      "BitsStored": 12,
      "BodyPartExamined": "BRAIN",
      "Columns": 72,
      "CountryOfResidence": "United States of America [1]",
      "EchoNumbers": 2,
      "EchoTime": 7.38,
      "EchoTrainLength": 0,
      "FlipAngle": 60.0,
      "HighBit": 11,
      "ImageOrientationPatient": [0.99948220425443, -0.0321678455056, 0.00074370305917, 0.03140999458842, 0.98042848791585, 0.19435378134475],
      "ImageType": [
        "ORIGINAL",
        "PRIMARY",
        "P",
        "ND"
],
      "ImagedNucleus": "1H",
      "ImagingFrequency": 123.18191,
      "InPlanePhaseEncodingDirection": "ROW",
      "MRAcquisitionType": "2D",
      "MagneticFieldStrength": 3.0,
      "Manufacturer": "SIEMENS",
      "ManufacturerModelName": "Skyra",
      "Modality": "MR",
      "NumberOfAverages": 1.0,
      "NumberOfPhaseEncodingSteps": 72,
      "PercentPhaseFieldOfView": 100.0,
      "PercentSampling": 100.0,
      "PerformedProcedureStepStartTime": "165623.382000",
      "PhotometricInterpretation": "MONOCHROME2",
      "PixelBandwidth": 290.0,
      "PixelRepresentation": 0,
      "PixelSpacing": [3.0, 3.0],
      "PregnancyStatus": 4,
      "ProcedureCodeSequence": [
        {
          "CodeMeaning": "MRI BRAIN WITHOUT IV CONTRAST",
          "CodeValue": "IMG269",
          "CodingSchemeDesignator": "L"
        }
],
      "ProtocolName": "gre_fm_bold",
      "RepetitionTime": 444.0,
      "RequestAttributesSequence": [
        {
          "RequestedProcedureID": "305297747",
          "ScheduledProcedureStepDescription": "MRI BRAIN WITHOUT IV CONTRAST",
          "ScheduledProcedureStepID": "E9198076",
          "ScheduledProtocolCodeSequence": [
            {
              "CodeMeaning": "MRI BRAIN WITHOUT IV CONTRAST",
              "CodeValue": "651061",
              "CodingSchemeDesignator": "L"
            }
]
        }
],
      "RequestedProcedureCodeSequence": [
        {
          "CodeMeaning": "MRI BRAIN WITHOUT IV CONTRAST",
          "CodeValue": "IMG269",
          "CodingSchemeDesignator": "L"
        }
],
      "RescaleIntercept": -4096.0,
      "RescaleSlope": 2.0,
      "RescaleType": "US",
      "Rows": 72,
      "SAR": 0.19430187174471,
      "SamplesPerPixel": 1,
      "ScanningSequence": "GR",
      "SequenceName": "*fm2d2r",
      "SequenceVariant": "SP",
      "SeriesDescription": "gre_fm_bold",
      "SeriesNumber": 4,
      "SeriesTime": "170238.335000",
      "SliceThickness": 3.0,
      "SmokingStatus": "UNKNOWN",
      "SoftwareVersions": "syngo MR E11",
      "SpacingBetweenSlices": 3.0,
      "SpecificCharacterSet": "ISO_IR 100",
      "StudyTime": "165623.213000",
      "TransmitCoilName": "Body",
      "VariableFlipAngleFlag": "N",
      "WindowCenterWidthExplanation": "Algo1",
      "dBdt": 0.0},
    "slices": {
      "AcquisitionTime": ["170133.862500", "170133.640000", "170133.875000", "170133.652500", "170133.887500", "170133.665000", "170133.897500", "170133.675000", "170133.910000", "170133.687500", "170133.922500", "170133.700000", "170133.932500", "170133.710000", "170133.945000", "170133.722500", "170133.957500", "170133.735000", "170133.967500", "170133.745000", "170133.980000", "170133.757500", "170133.992500", "170133.770000", "170134.002500", "170133.782500", "170134.015000", "170133.792500", "170134.027500", "170133.805000", "170134.037500", "170133.817500", "170134.050000", "170133.827500", "170134.062500", "170133.840000", "170134.072500", "170133.852500"],
      "ContentTime": ["170238.378000", "170238.337000", "170238.381000", "170238.340000", "170238.383000", "170238.342000", "170238.385000", "170238.345000", "170238.388000", "170238.347000", "170238.390000", "170238.349000", "170238.392000", "170238.351000", "170238.394000", "170238.353000", "170238.397000", "170238.355000", "170238.399000", "170238.357000", "170238.401000", "170238.359000", "170238.403000", "170238.362000", "170238.405000", "170238.364000", "170238.407000", "170238.366000", "170238.411000", "170238.368000", "170238.417000", "170238.370000", "170238.419000", "170238.372000", "170238.421000", "170238.374000", "170238.424000", "170238.376000"],
      "CsaImage.ICE_Dims": [
        "X_2_1_1_1_1_1_20_1_1_1_1_5222",
        "X_2_1_1_1_1_1_1_1_1_2_1_5222",
        "X_2_1_1_1_1_1_21_1_1_3_1_5222",
        "X_2_1_1_1_1_1_2_1_1_4_1_5222",
        "X_2_1_1_1_1_1_22_1_1_5_1_5222",
        "X_2_1_1_1_1_1_3_1_1_6_1_5222",
        "X_2_1_1_1_1_1_23_1_1_7_1_5222",
        "X_2_1_1_1_1_1_4_1_1_8_1_5222",
        "X_2_1_1_1_1_1_24_1_1_9_1_5222",
        "X_2_1_1_1_1_1_5_1_1_10_1_5222",
        "X_2_1_1_1_1_1_25_1_1_11_1_5222",
        "X_2_1_1_1_1_1_6_1_1_12_1_5222",
        "X_2_1_1_1_1_1_26_1_1_13_1_5222",
        "X_2_1_1_1_1_1_7_1_1_14_1_5222",
        "X_2_1_1_1_1_1_27_1_1_15_1_5222",
        "X_2_1_1_1_1_1_8_1_1_16_1_5222",
        "X_2_1_1_1_1_1_28_1_1_17_1_5222",
        "X_2_1_1_1_1_1_9_1_1_18_1_5222",
        "X_2_1_1_1_1_1_29_1_1_19_1_5222",
        "X_2_1_1_1_1_1_10_1_1_20_1_5222",
        "X_2_1_1_1_1_1_30_1_1_21_1_5222",
        "X_2_1_1_1_1_1_11_1_1_22_1_5222",
        "X_2_1_1_1_1_1_31_1_1_23_1_5222",
        "X_2_1_1_1_1_1_12_1_1_24_1_5222",
        "X_2_1_1_1_1_1_32_1_1_25_1_5222",
        "X_2_1_1_1_1_1_13_1_1_26_1_5222",
        "X_2_1_1_1_1_1_33_1_1_27_1_5222",
        "X_2_1_1_1_1_1_14_1_1_28_1_5222",
        "X_2_1_1_1_1_1_34_1_1_29_1_5222",
        "X_2_1_1_1_1_1_15_1_1_30_1_5222",
        "X_2_1_1_1_1_1_35_1_1_31_1_5222",
        "X_2_1_1_1_1_1_16_1_1_32_1_5222",
        "X_2_1_1_1_1_1_36_1_1_33_1_5222",
        "X_2_1_1_1_1_1_17_1_1_34_1_5222",
        "X_2_1_1_1_1_1_37_1_1_35_1_5222",
        "X_2_1_1_1_1_1_18_1_1_36_1_5222",
        "X_2_1_1_1_1_1_38_1_1_37_1_5222",
        "X_2_1_1_1_1_1_19_1_1_38_1_5222"
],
      "CsaImage.ProtocolSliceNumber": [0, 1, 2, 3, 4, 5, 6, 7, 8, 9, 10, 11, 12, 13, 14, 15, 16, 17, 18, 19, 20, 21, 22, 23, 24, 25, 26, 27, 28, 29, 30, 31, 32, 33, 34, 35, 36, 37],
      "CsaImage.SliceMeasurementDuration": [63047.5, 63050.0, 63047.5, 63047.5, 63047.5, 63047.5, 63047.5, 63050.0, 63047.5, 63047.5, 63047.5, 63047.5, 63047.5, 63050.0, 63047.5, 63047.5, 63047.5, 63047.5, 63047.5, 63050.0, 63047.5, 63047.5, 63047.5, 63047.5, 63047.5, 63047.5, 63047.5, 63047.5, 63047.5, 63047.5, 63047.5, 63047.5, 63047.5, 63047.5, 63047.5, 63047.5, 63050.0, 63047.5],
      "CsaImage.SlicePosition_PCS": [
        [-110.13458419, -90.73768706, -58.12777929],
        [-110.15552747, -91.32037635, -55.18498449],
        [-110.17647076, -91.90306563, -52.2421916],
        [-110.19741404, -92.48575492, -49.29939871],
        [-110.21835733, -93.0684442, -46.35660391],
        [-110.23930061, -93.65113349, -43.41381102],
        [-110.26024377, -94.23382277, -40.47101622],
        [-110.28118706, -94.81651254, -37.52822332],
        [-110.30213034, -95.39920182, -34.58542948],
        [-110.32307363, -95.98189111, -31.64263563],
        [-110.34401691, -96.56458039, -28.69984226],
        [-110.36496019, -97.14726968, -25.75704889],
        [-110.38590342, -97.72995896, -22.81425505],
        [-110.4068467, -98.31264825, -19.87146144],
        [-110.42778999, -98.89533777, -16.92866783],
        [-110.44873327, -99.47802706, -13.98587398],
        [-110.46967655, -100.06071658, -11.04308062],
        [-110.49061978, -100.64340587, -8.10028677],
        [-110.51156306, -101.22609527, -5.15749292],
        [-110.53250635, -101.80878456, -2.21469908],
        [-110.55344963, -102.39147393, 0.72809382],
        [-110.57439286, -102.9741633, 3.67088862],
        [-110.59533614, -103.55685265, 6.61368151],
        [-110.61627942, -104.13954193, 9.5564744],
        [-110.63722271, -104.72223134, 12.4992692],
        [-110.65816599, -105.30492062, 15.442064],
        [-110.67910922, -105.88761015, 18.38485499],
        [-110.7000525, -106.47029919, 21.32764978],
        [-110.72099578, -107.05298896, 24.27044458],
        [-110.74193907, -107.63567824, 27.21323557],
        [-110.76288229, -108.21836753, 30.15603037],
        [-110.78382558, -108.80105681, 33.09882517],
        [-110.80476886, -109.3837461, 36.04161615],
        [-110.82571215, -109.96643538, 38.98441095],
        [-110.8466554, -110.54912467, 41.92720575],
        [-110.86759868, -111.13181395, 44.87000055],
        [-110.88854194, -111.71450324, 47.81279535],
        [-110.90948522, -112.29719252, 50.75558252]
],
      "CsaImage.TimeAfterStart": [0.6675, 0.4475, 0.68, 0.4575, 0.6925, 0.47, 0.7025, 0.4825, 0.715, 0.4925, 0.7275, 0.505, 0.7375, 0.5175, 0.75, 0.5275, 0.7625, 0.54, 0.7725, 0.5525, 0.785, 0.5625, 0.7975, 0.575, 0.8075, 0.5875, 0.82, 0.5975, 0.8325, 0.61, 0.8425, 0.6225, 0.855, 0.6325, 0.8675, 0.645, 0.88, 0.6575],
      "ImagePositionPatient": [
        [-110.13458418916, -90.737687061883, -58.127779292185],
        [-110.1555274732, -91.320376347161, -55.184984492381],
        [-110.17647075723, -91.903065632439, -52.242191599925],
        [-110.19741404127, -92.485754917718, -49.299398707469],
        [-110.2183573253, -93.068444202996, -46.356603907664],
        [-110.23930060934, -93.651133488274, -43.413811015208],
        [-110.26024377416, -94.233822773553, -40.471016215403],
        [-110.2811870582, -94.816512535668, -37.528223322947],
        [-110.30213034223, -95.399201820947, -34.585429476817],
        [-110.32307362627, -95.981891106225, -31.642635630686],
        [-110.3440169103, -96.564580391503, -28.699842261393],
        [-110.36496019433, -97.147269676781, -25.7570488921],
        [-110.38590341876, -97.72995896206, -22.814255045969],
        [-110.4068467028, -98.312648247338, -19.871461438258],
        [-110.42778998683, -98.895337771035, -16.928667830546],
        [-110.44873327087, -99.478027056313, -13.985873984416],
        [-110.4696765549, -100.06071658001, -11.043080615122],
        [-110.49061977933, -100.64340586529, -8.100286768992],
        [-110.51156306337, -101.22609526978, -5.1574929228616],
        [-110.5325063474, -101.80878455505, -2.2146990767312],
        [-110.55344963144, -102.39147392788, 0.72809381572484],
        [-110.57439285587, -102.97416330443, 3.6708886155295],
        [-110.5953361399, -103.55685264931, 6.6136815079856],
        [-110.61627942394, -104.13954193459, 9.5564744004416],
        [-110.63722270797, -104.72223133907, 12.499269200246],
        [-110.65816599201, -105.30492062435, 15.442064000051],
        [-110.67910921644, -105.88761014805, 18.384854985158],
        [-110.70005250047, -106.47029919491, 21.327649784963],
        [-110.72099578451, -107.05298895702, 24.270444584768],
        [-110.74193906854, -107.6356782423, 27.213235569875],
        [-110.76288229297, -108.21836752758, 30.15603036968],
        [-110.78382557701, -108.80105681286, 33.098825169485],
        [-110.80476886104, -109.38374609814, 36.041616154592],
        [-110.82571214508, -109.96643538342, 38.984410954397],
        [-110.84665539931, -110.54912466869, 41.927205754201],
        [-110.86759868334, -111.13181395397, 44.870000554006],
        [-110.88854193758, -111.71450323925, 47.812795353811],
        [-110.90948522161, -112.29719252453, 50.755582524221]
],
      "InstanceCreationTime": ["170238.378000", "170238.337000", "170238.381000", "170238.340000", "170238.383000", "170238.342000", "170238.385000", "170238.345000", "170238.388000", "170238.347000", "170238.390000", "170238.349000", "170238.392000", "170238.351000", "170238.394000", "170238.353000", "170238.397000", "170238.355000", "170238.399000", "170238.357000", "170238.401000", "170238.359000", "170238.403000", "170238.362000", "170238.405000", "170238.364000", "170238.407000", "170238.366000", "170238.411000", "170238.368000", "170238.417000", "170238.370000", "170238.419000", "170238.372000", "170238.421000", "170238.374000", "170238.424000", "170238.376000"],
      "InstanceNumber": [1, 2, 3, 4, 5, 6, 7, 8, 9, 10, 11, 12, 13, 14, 15, 16, 17, 18, 19, 20, 21, 22, 23, 24, 25, 26, 27, 28, 29, 30, 31, 32, 33, 34, 35, 36, 37, 38],
      "LargestImagePixelValue": [4093, 4095, 4094, 4092, 4095, 4089, 4093, 4089, 4085, 4082, 4094, 4086, 4092, 4083, 4092, 4089, 4090, 4083, 4054, 4068, 4093, 4085, 4084, 4072, 4073, 4088, 4092, 4091, 4092, 4094, 4094, 4095, 4086, 4094, 4094, 4094, 4094, 4094],
      "SliceLocation": [-38.62653234494, -35.62653123526, -32.626531996558, -29.626532757855, -26.626531648175, -23.626532409473, -20.626531300625, -17.626531969307, -14.626531795116, -11.626531620924, -8.6265319144777, -5.626532208031, -2.6265320342559, 0.37346790606304, 3.37346789269, 6.3734680668812, 9.3734678196359, 12.373467993411, 15.373468190756, 18.373468364947, 21.373467620653, 24.373468747645, 27.373467997924, 30.373467236626, 33.37346836946, 36.37346947914, 39.373466892757, 42.373467956129, 45.373469158425, 48.373466526149, 51.373467635413, 54.373468745093, 57.373466112818, 60.373467222498, 63.37346833197, 66.37346944165, 69.373470551122, 72.373464176891],
      "SmallestImagePixelValue": [10, 0, 0, 4, 0, 0, 2, 0, 1, 9, 10, 21, 3, 8, 1, 13, 8, 7, 12, 9, 30, 6, 3, 20, 1, 12, 6, 0, 8, 13, 0, 7, 8, 3, 0, 1, 2, 0],
      "WindowCenter": [-252.0, -208.0, -244.0, -264.0, -262.0, -286.0, -236.0, -290.0, -282.0, -228.0, -250.0, -240.0, -192.0, -196.0, -122.0, -134.0, -136.0, -114.0, -140.0, -288.0, -144.0, -166.0, -274.0, -144.0, -266.0, -260.0, -146.0, -142.0, -190.0, -160.0, -156.0, -190.0, -210.0, -192.0, -188.0, -172.0, -166.0, -192.0],
      "WindowWidth": [5980.0, 5976.0, 5812.0, 5578.0, 5690.0, 5606.0, 5570.0, 5402.0, 5554.0, 5434.0, 5268.0, 5480.0, 5288.0, 5272.0, 5494.0, 5358.0, 5314.0, 5194.0, 5178.0, 4624.0, 5280.0, 5062.0, 4618.0, 5168.0, 4614.0, 4618.0, 5266.0, 5386.0, 5272.0, 5538.0, 5604.0, 5534.0, 5516.0, 5780.0, 5994.0, 6006.0, 6146.0, 6296.0]
    }
  }
}