{
  "AcquisitionMatrixPE": 72,
  "AcquisitionNumber": 1,
  "AcquisitionTime": "16:29:17.197500",
  "BandwidthPerPixelPhaseEncode": 24.366,
  "BaseResolution": 72,
  "BodyPartExamined": "BRAIN",
  "CoilCombinationMethod": "Sum of Squares",
  "ConsistencyInfo": "N4_VE11C_LATEST_20160120",
  "ConversionSoftware": "dcm2niix",
  "ConversionSoftwareVersion": "v1.0.20220720",
  "DerivedVendorReportedEchoSpacing": 0.000570011,
  "DeviceSerialNumber": "45219",
  "DwellTime": 3.5e-06,
  "EchoTime": 0.03,
  "EchoTrainLength": 72,
  "EffectiveEchoSpacing": 0.000570011,
  "FlipAngle": 80,
  "HeudiconvVersion": "1.1.6",
  "ImageOrientationPatientDICOM": [1, 0, 0, 0, 0.999701, 0.0244322],
  "ImageOrientationText": "Tra>Cor(1.4)",
  "ImageType": [
    "ORIGINAL",
    "PRIMARY",
    "M",
    "ND",
    "NORM",
    "MOSAIC"
],
  "ImagingFrequency": 123.182,
  "InPlanePhaseEncodingDirectionDICOM": "COL",
  "InstitutionAddress": "First Avenue 660,New York,NYC,US,10016",
  "InstitutionName": "NYU LANGONE CBI",
  "InstitutionalDepartmentName": "Department",
  "MRAcquisitionType": "2D",
  "MagneticFieldStrength": 3,
  "Manufacturer": "Siemens",
  "ManufacturersModelName": "Skyra",
  "MatrixCoilMode": "SENSE",
  "Modality": "MR",
  "NonlinearGradientCorrection": false,
  "PartialFourier": 1,
  "PatientPosition": "HFS",
  "PercentPhaseFOV": 100,
  "PercentSampling": 100,
  "PhaseEncodingDirection": "j-",
  "PhaseEncodingSteps": 72,
  "PhaseResolution": 1,
  "PixelBandwidth": 1985,
  "ProcedureStepDescription": "MRI BRAIN WITHOUT IV CONTRAST",
  "ProtocolName": "REST_2",
  "PulseSequenceDetails": "%SiemensSeq%\\ep2d_bold",
  "ReceiveCoilActiveElements": "HE1-4",
  "ReceiveCoilName": "HeadNeck_20",
  "ReconMatrixPE": 72,
  "RepetitionTime": 2.5,
  "SAR": 0.112928,
  "ScanOptions": "FS",
  "ScanningSequence": "EP",
  "SequenceName": "*epfid2d1_72",
  "SequenceVariant": "SK",
  "SeriesDescription": "REST_2",
  "SeriesNumber": 11,
  "ShimSetting": [-902, -6973, 5029, 263, -174, -367, 275, -103],
  "SliceThickness": 3,
  "SliceTiming": [1.24, 0, 1.305, 0.065, 1.3725, 0.1325, 1.4375, 0.1975, 1.5025, 0.2625, 1.5675, 0.3275, 1.6325, 0.3925, 1.6975, 0.4575, 1.7625, 0.5225, 1.8275, 0.5875, 1.8925, 0.6525, 1.9575, 0.72, 2.025, 0.785, 2.09, 0.85, 2.155, 0.915, 2.22, 0.98, 2.285, 1.045, 2.35, 1.11, 2.415, 1.175],
  "SoftwareVersions": "syngo MR E11",
  "SpacingBetweenSlices": 3,
  "StationName": "MRC45219",
  "TaskName": "rest",
  "TotalReadoutTime": 0.0404708,
  "TxRefAmp": 423.464,
  "dcmmeta_affine": [
    [-3.0, 0.0, 0.0, 108.0],
    [0.0, 2.9991044998168945, 0.07329653203487396, -110.83683776855469],
    [0.0, -0.07329653203487396, 2.9991044998168945, -48.27790832519531],
    [0.0, 0.0, 0.0, 1.0]
],
  "dcmmeta_reorient_transform": [
    [0.0, -1.0, 0.0, 71.0],
    [1.0, 0.0, 0.0, 0.0],
    [0.0, 0.0, 1.0, 0.0],
    [0.0, 0.0, 0.0, 1.0]
],
  "dcmmeta_shape": [72, 72, 38, 122],
  "dcmmeta_slice_dim": 2,
  "dcmmeta_version": 0.6,
  "global": {
    "const": {
      "AcquisitionMatrix": [72, 0, 0, 72],
      "AngioFlag": "N",
      "BitsAllocated": 16,
      "BitsStored": 12,
      "BodyPartExamined": "BRAIN",
      "Columns": 504,
      "CountryOfResidence": "United States of America [1]",
      "EchoNumbers": 1,
      "EchoTime": 30.0,
      "EchoTrainLength": 72,
      "FlipAngle": 80.0,
      "HighBit": 11,
      "ImageOrientationPatient": [1.0, 0.0, 0.0, 0.0, 0.99970148981559, 0.02443217674489],
      "ImagePositionPatient": [-756.0, -749.90614125725, -69.314014040768],
      "ImageType": [
        "ORIGINAL",
        "PRIMARY",
        "M",
        "ND",
        "NORM",
        "MOSAIC"
],
      "ImagedNucleus": "1H",
      "ImagingFrequency": 123.182004,
      "InPlanePhaseEncodingDirection": "COL",
      "MRAcquisitionType": "2D",
      "MagneticFieldStrength": 3.0,
      "Manufacturer": "SIEMENS",
      "ManufacturerModelName": "Skyra",
      "Modality": "MR",
      "NumberOfAverages": 1.0,
      "NumberOfPhaseEncodingSteps": 72,
      "PercentPhaseFieldOfView": 100.0,
      "PercentSampling": 100.0,
      "PerformedProcedureStepStartTime": "160557.472000",
      "PhotometricInterpretation": "MONOCHROME2",
      "PixelBandwidth": 1985.0,
      "PixelRepresentation": 0,
      "PixelSpacing": [3.0, 3.0],
      "PregnancyStatus": 4,
      "ProcedureCodeSequence": [
        {
          "CodeMeaning": "MRI BRAIN WITHOUT IV CONTRAST",
          "CodeValue": "IMG269",
          "CodingSchemeDesignator": "L"
        }
],
      "ProtocolName": "REST_2",
      "RepetitionTime": 2500.0,
      "RequestAttributesSequence": [
        {
          "RequestedProcedureID": "125739968",
          "ScheduledProcedureStepDescription": "MRI BRAIN WITHOUT IV CONTRAST",
          "ScheduledProcedureStepID": "E9173253",
          "ScheduledProtocolCodeSequence": [
            {
              "CodeMeaning": "MRI BRAIN WITHOUT IV CONTRAST",
              "CodeValue": "651061",
              "CodingSchemeDesignator": "L"
            }
]
        }
],
      "RequestedProcedureCodeSequence": [
        {
          "CodeMeaning": "MRI BRAIN WITHOUT IV CONTRAST",
          "CodeValue": "IMG269",
          "CodingSchemeDesignator": "L"
        }
],
      "Rows": 504,
      "SAR": 0.11292846521952,
      "SamplesPerPixel": 1,
      "ScanOptions": "FS",
      "ScanningSequence": "EP",
      "SequenceName": "*epfid2d1_72",
      "SequenceVariant": "SK",
      "SeriesDescription": "REST_2",
      "SeriesNumber": 11,
      "SeriesTime": "163010.507000",
      "SliceLocation": -50.971483716378,
      "SliceThickness": 3.0,
      "SmallestImagePixelValue": 0,
      "SmokingStatus": "UNKNOWN",
      "SoftwareVersions": "syngo MR E11",
      "SpacingBetweenSlices": 3.000000004687,
      "SpecificCharacterSet": "ISO_IR 100",
      "StudyID": "125739968",
      "StudyTime": "160557.311000",
      "TransmitCoilName": "Body",
      "VariableFlipAngleFlag": "N",
      "WindowCenterWidthExplanation": "Algo1",
      "dBdt": 0.0},
    "slices": {}
  },
  "time": {
    "samples": {
      "AcquisitionNumber": [1, 2, 3, 4, 5, 6, 7, 8, 9, 10, 11, 12, 13, 14, 15, 16, 17, 18, 19, 20, 21, 22, 23, 24, 25, 26, 27, 28, 29, 30, 31, 32, 33, 34, 35, 36, 37, 38, 39, 40, 41, 42, 43, 44, 45, 46, 47, 48, 49, 50, 51, 52, 53, 54, 55, 56, 57, 58, 59, 60, 61, 62, 63, 64, 65, 66, 67, 68, 69, 70, 71, 72, 73, 74, 75, 76, 77, 78, 79, 80, 81, 82, 83, 84, 85, 86, 87, 88, 89, 90, 91, 92, 93, 94, 95, 96, 97, 98, 99, 100, 101, 102, 103, 104, 105, 106, 107, 108, 109, 110, 111, 112, 113, 114, 115, 116, 117, 118, 119, 120, 121, 122],
      "AcquisitionTime": ["162917.197500", "162919.697500", "162922.197500", "162924.697500", "162927.197500", "162929.697500", "162932.197500", "162934.697500", "162937.197500", "162939.697500", "162942.197500", "162944.697500", "162947.197500", "162949.697500", "162952.197500", "162954.697500", "162957.197500", "162959.697500", "163002.197500", "163004.697500", "163007.197500", "163009.697500", "163012.197500", "163014.697500", "163017.197500", "163019.697500", "163022.197500", "163024.697500", "163027.197500", "163029.697500", "163032.197500", "163034.697500", "163037.197500", "163039.697500", "163042.197500", "163044.697500", "163047.197500", "163049.697500", "163052.197500", "163054.697500", "163057.197500", "163059.697500", "163102.197500", "163104.697500", "163107.197500", "163109.697500", "163112.197500", "163114.697500", "163117.197500", "163119.697500", "163122.197500", "163124.697500", "163127.197500", "163129.697500", "163132.197500", "163134.697500", "163137.197500", "163139.697500", "163142.197500", "163144.697500", "163147.197500", "163149.697500", "163152.197500", "163154.697500", "163157.197500", "163159.697500", "163202.197500", "163204.697500", "163207.197500", "163209.697500", "163212.197500", "163214.697500", "163217.197500", "163219.697500", "163222.197500", "163224.697500", "163227.197500", "163229.697500", "163232.197500", "163234.697500", "163237.197500", "163239.697500", "163242.197500", "163244.697500", "163247.197500", "163249.697500", "163252.197500", "163254.697500", "163257.197500", "163259.697500", "163302.197500", "163304.697500", "163307.197500", "163309.697500", "163312.197500", "163314.697500", "163317.197500", "163319.697500", "163322.197500", "163324.697500", "163327.197500", "163329.697500", "163332.197500", "163334.697500", "163337.197500", "163339.697500", "163342.197500", "163344.697500", "163347.197500", "163349.697500", "163352.197500", "163354.697500", "163357.197500", "163359.697500", "163402.197500", "163404.697500", "163407.197500", "163409.697500", "163412.197500", "163414.697500", "163417.197500", "163419.697500"],
      "ContentTime": ["163010.511000", "163010.515000", "163010.518000", "163010.520000", "163010.523000", "163010.526000", "163010.528000", "163010.538000", "163010.540000", "163010.543000", "163010.552000", "163010.555000", "163010.558000", "163010.561000", "163010.563000", "163010.566000", "163010.568000", "163010.571000", "163010.596000", "163010.599000", "163010.601000", "163110.506000", "163110.509000", "163110.511000", "163110.514000", "163110.517000", "163110.519000", "163110.522000", "163110.525000", "163110.527000", "163110.530000", "163110.532000", "163110.535000", "163110.538000", "163110.540000", "163110.543000", "163110.546000", "163110.549000", "163110.551000", "163110.554000", "163110.556000", "163110.559000", "163110.562000", "163110.564000", "163110.567000", "163210.506000", "163210.509000", "163210.511000", "163210.514000", "163210.517000", "163210.519000", "163210.522000", "163210.525000", "163210.527000", "163210.530000", "163210.533000", "163210.535000", "163210.538000", "163210.541000", "163210.543000", "163210.546000", "163210.548000", "163210.556000", "163210.559000", "163210.562000", "163210.564000", "163210.567000", "163210.570000", "163210.572000", "163310.506000", "163310.508000", "163310.511000", "163310.514000", "163310.523000", "163310.525000", "163310.528000", "163310.531000", "163310.533000", "163310.536000", "163310.539000", "163310.541000", "163310.544000", "163310.547000", "163310.549000", "163310.552000", "163310.555000", "163310.557000", "163310.560000", "163310.563000", "163310.565000", "163310.568000", "163310.571000", "163310.573000", "163410.506000", "163410.509000", "163410.511000", "163410.521000", "163410.523000", "163410.526000", "163410.528000", "163410.531000", "163410.534000", "163410.537000", "163410.539000", "163410.542000", "163410.545000", "163410.547000", "163410.550000", "163410.553000", "163410.556000", "163410.558000", "163410.561000", "163410.564000", "163410.567000", "163410.569000", "163410.572000", "163410.575000", "163421.579000", "163421.582000", "163421.585000", "163421.587000", "163421.590000"],
      "InstanceCreationTime": ["163010.511000", "163010.515000", "163010.518000", "163010.520000", "163010.523000", "163010.526000", "163010.528000", "163010.538000", "163010.540000", "163010.543000", "163010.552000", "163010.555000", "163010.558000", "163010.561000", "163010.563000", "163010.566000", "163010.568000", "163010.571000", "163010.596000", "163010.599000", "163010.601000", "163110.506000", "163110.509000", "163110.511000", "163110.514000", "163110.517000", "163110.519000", "163110.522000", "163110.525000", "163110.527000", "163110.530000", "163110.532000", "163110.535000", "163110.538000", "163110.540000", "163110.543000", "163110.546000", "163110.549000", "163110.551000", "163110.554000", "163110.556000", "163110.559000", "163110.562000", "163110.564000", "163110.567000", "163210.506000", "163210.509000", "163210.511000", "163210.514000", "163210.517000", "163210.519000", "163210.522000", "163210.525000", "163210.527000", "163210.530000", "163210.533000", "163210.535000", "163210.538000", "163210.541000", "163210.543000", "163210.546000", "163210.548000", "163210.556000", "163210.559000", "163210.562000", "163210.564000", "163210.567000", "163210.570000", "163210.572000", "163310.506000", "163310.508000", "163310.511000", "163310.514000", "163310.523000", "163310.525000", "163310.528000", "163310.531000", "163310.533000", "163310.536000", "163310.539000", "163310.541000", "163310.544000", "163310.547000", "163310.549000", "163310.552000", "163310.555000", "163310.557000", "163310.560000", "163310.563000", "163310.565000", "163310.568000", "163310.571000", "163310.573000", "163410.506000", "163410.509000", "163410.511000", "163410.521000", "163410.523000", "163410.526000", "163410.528000", "163410.531000", "163410.534000", "163410.537000", "163410.539000", "163410.542000", "163410.545000", "163410.547000", "163410.550000", "163410.553000", "163410.556000", "163410.558000", "163410.561000", "163410.564000", "163410.567000", "163410.569000", "163410.572000", "163410.575000", "163421.579000", "163421.582000", "163421.585000", "163421.587000", "163421.590000"],
      "InstanceNumber": [1, 2, 3, 4, 5, 6, 7, 8, 9, 10, 11, 12, 13, 14, 15, 16, 17, 18, 19, 20, 21, 22, 23, 24, 25, 26, 27, 28, 29, 30, 31, 32, 33, 34, 35, 36, 37, 38, 39, 40, 41, 42, 43, 44, 45, 46, 47, 48, 49, 50, 51, 52, 53, 54, 55, 56, 57, 58, 59, 60, 61, 62, 63, 64, 65, 66, 67, 68, 69, 70, 71, 72, 73, 74, 75, 76, 77, 78, 79, 80, 81, 82, 83, 84, 85, 86, 87, 88, 89, 90, 91, 92, 93, 94, 95, 96, 97, 98, 99, 100, 101, 102, 103, 104, 105, 106, 107, 108, 109, 110, 111, 112, 113, 114, 115, 116, 117, 118, 119, 120, 121, 122],
      "LargestImagePixelValue": [1491, 1820, 1850, 1853, 1651, 1931, 1666, 2006, 1557, 1492, 1736, 1632, 1789, 1887, 1550, 1912, 1709, 1667, 1669, 1733, 1571, 1665, 1906, 1513, 1892, 1855, 1490, 1567, 1935, 1522, 1561, 1732, 1493, 1529, 1725, 1470, 1724, 1928, 1597, 1884, 1897, 1837, 2212, 2034, 1485, 1795, 1884, 1448, 1780, 1584, 1443, 1621, 1636, 1856, 1558, 1784, 2085, 1645, 1517, 1466, 1829, 1561, 1603, 1432, 1547, 1581, 1505, 1564, 1465, 1463, 1844, 1517, 1696, 1584, 1800, 1961, 1439, 1417, 1691, 1489, 1709, 1709, 1814, 1526, 1564, 1614, 1694, 1499, 1842, 1761, 1619, 1407, 1522, 1609, 1576, 1412, 1527, 1699, 1781, 1636, 1655, 1883, 1782, 1567, 1859, 1564, 1604, 1620, 1767, 1581, 1561, 1695, 1642, 1576, 1516, 1625, 1472, 1781, 1699, 1488, 1840, 1538],
      "WindowCenter": [615.0, 616.0, 616.0, 616.0, 614.0, 616.0, 614.0, 616.0, 613.0, 613.0, 615.0, 614.0, 614.0, 615.0, 613.0, 615.0, 614.0, 613.0, 613.0, 614.0, 613.0, 614.0, 615.0, 613.0, 614.0, 614.0, 613.0, 613.0, 614.0, 612.0, 612.0, 613.0, 612.0, 613.0, 614.0, 613.0, 615.0, 616.0, 614.0, 616.0, 616.0, 611.0, 618.0, 616.0, 613.0, 614.0, 616.0, 613.0, 615.0, 614.0, 613.0, 614.0, 614.0, 615.0, 613.0, 614.0, 616.0, 613.0, 613.0, 613.0, 615.0, 612.0, 613.0, 612.0, 613.0, 613.0, 612.0, 613.0, 613.0, 613.0, 615.0, 613.0, 616.0, 615.0, 615.0, 615.0, 613.0, 613.0, 615.0, 614.0, 615.0, 614.0, 615.0, 613.0, 613.0, 614.0, 614.0, 613.0, 615.0, 614.0, 613.0, 611.0, 613.0, 614.0, 614.0, 613.0, 614.0, 614.0, 615.0, 614.0, 613.0, 615.0, 614.0, 613.0, 615.0, 613.0, 613.0, 613.0, 614.0, 613.0, 613.0, 615.0, 614.0, 613.0, 612.0, 614.0, 613.0, 614.0, 614.0, 613.0, 615.0, 614.0],
      "WindowWidth": [1297.0, 1297.0, 1297.0, 1296.0, 1293.0, 1297.0, 1293.0, 1296.0, 1291.0, 1291.0, 1294.0, 1292.0, 1293.0, 1295.0, 1290.0, 1294.0, 1291.0, 1291.0, 1291.0, 1292.0, 1291.0, 1292.0, 1295.0, 1290.0, 1293.0, 1292.0, 1290.0, 1290.0, 1292.0, 1288.0, 1288.0, 1291.0, 1289.0, 1290.0, 1293.0, 1291.0, 1295.0, 1297.0, 1294.0, 1296.0, 1296.0, 1285.0, 1300.0, 1296.0, 1290.0, 1293.0, 1295.0, 1290.0, 1294.0, 1292.0, 1291.0, 1293.0, 1292.0, 1294.0, 1290.0, 1293.0, 1295.0, 1290.0, 1289.0, 1290.0, 1294.0, 1289.0, 1290.0, 1289.0, 1291.0, 1291.0, 1289.0, 1290.0, 1291.0, 1291.0, 1294.0, 1291.0, 1296.0, 1294.0, 1294.0, 1294.0, 1290.0, 1290.0, 1295.0, 1293.0, 1295.0, 1293.0, 1294.0, 1292.0, 1292.0, 1291.0, 1293.0, 1290.0, 1294.0, 1291.0, 1290.0, 1288.0, 1290.0, 1292.0, 1292.0, 1291.0, 1292.0, 1293.0, 1294.0, 1292.0, 1291.0, 1293.0, 1293.0, 1289.0, 1293.0, 1291.0, 1291.0, 1291.0, 1292.0, 1290.0, 1290.0, 1294.0, 1292.0, 1291.0, 1289.0, 1292.0, 1290.0, 1292.0, 1292.0, 1290.0, 1295.0, 1291.0]
    },
    "slices": {}
  }
}