{
  "AcquisitionMatrixPE": 72,
  "AcquisitionNumber": 1,
  "AcquisitionTime": "16:11:9.460000",
  "BandwidthPerPixelPhaseEncode": 24.366,
  "BaseResolution": 72,
  "BodyPartExamined": "BRAIN",
  "CoilCombinationMethod": "Sum of Squares",
  "ConsistencyInfo": "N4_VE11C_LATEST_20160120",
  "ConversionSoftware": "dcm2niix",
  "ConversionSoftwareVersion": "v1.0.20220720",
  "DerivedVendorReportedEchoSpacing": 0.000570011,
  "DeviceSerialNumber": "45219",
  "DwellTime": 3.5e-06,
  "EchoTime": 0.03,
  "EchoTrainLength": 72,
  "EffectiveEchoSpacing": 0.000570011,
  "FlipAngle": 80,
  "HeudiconvVersion": "1.1.6",
  "ImageOrientationPatientDICOM": [1, 0, 0, 0, 0.999701, 0.0244322],
  "ImageOrientationText": "Tra>Cor(1.4)",
  "ImageType": [
    "ORIGINAL",
    "PRIMARY",
    "M",
    "ND",
    "NORM",
    "MOSAIC"
],
  "ImagingFrequency": 123.182,
  "InPlanePhaseEncodingDirectionDICOM": "COL",
  "InstitutionAddress": "First Avenue 660,New York,NYC,US,10016",
  "InstitutionName": "NYU LANGONE CBI",
  "InstitutionalDepartmentName": "Department",
  "MRAcquisitionType": "2D",
  "MagneticFieldStrength": 3,
  "Manufacturer": "Siemens",
  "ManufacturersModelName": "Skyra",
  "MatrixCoilMode": "SENSE",
  "Modality": "MR",
  "NonlinearGradientCorrection": false,
  "PartialFourier": 1,
  "PatientPosition": "HFS",
  "PercentPhaseFOV": 100,
  "PercentSampling": 100,
  "PhaseEncodingDirection": "j-",
  "PhaseEncodingSteps": 72,
  "PhaseResolution": 1,
  "PixelBandwidth": 1985,
  "ProcedureStepDescription": "MRI BRAIN WITHOUT IV CONTRAST",
  "ProtocolName": "TASK_AB",
  "PulseSequenceDetails": "%SiemensSeq%\\ep2d_bold",
  "ReceiveCoilActiveElements": "HE1-4",
  "ReceiveCoilName": "HeadNeck_20",
  "ReconMatrixPE": 72,
  "RepetitionTime": 2.5,
  "SAR": 0.112969,
  "ScanOptions": "FS",
  "ScanningSequence": "EP",
  "SequenceName": "*epfid2d1_72",
  "SequenceVariant": "SK",
  "SeriesDescription": "TASK_AB",
  "SeriesNumber": 5,
  "ShimSetting": [-902, -6973, 5029, 263, -174, -367, 275, -103],
  "SliceThickness": 3,
  "SliceTiming": [1.24, 0, 1.3075, 0.0675, 1.3725, 0.1325, 1.4375, 0.1975, 1.5025, 0.2625, 1.5675, 0.3275, 1.6325, 0.3925, 1.6975, 0.4575, 1.7625, 0.5225, 1.8275, 0.5875, 1.8925, 0.655, 1.96, 0.72, 2.025, 0.785, 2.09, 0.85, 2.155, 0.915, 2.22, 0.98, 2.285, 1.045, 2.35, 1.11, 2.415, 1.175],
  "SoftwareVersions": "syngo MR E11",
  "SpacingBetweenSlices": 3,
  "StationName": "MRC45219",
  "TaskName": "ab",
  "TotalReadoutTime": 0.0404708,
  "TxRefAmp": 423.464,
  "dcmmeta_affine": [
    [-3.0, 0.0, 0.0, 108.0],
    [0.0, 2.9991044998168945, 0.07329653203487396, -110.83683776855469],
    [0.0, -0.07329653203487396, 2.9991044998168945, -48.27790832519531],
    [0.0, 0.0, 0.0, 1.0]
],
  "dcmmeta_reorient_transform": [
    [0.0, -1.0, 0.0, 71.0],
    [1.0, 0.0, 0.0, 0.0],
    [0.0, 0.0, 1.0, 0.0],
    [0.0, 0.0, 0.0, 1.0]
],
  "dcmmeta_shape": [72, 72, 38, 132],
  "dcmmeta_slice_dim": 2,
  "dcmmeta_version": 0.6,
  "global": {
    "const": {
      "AcquisitionMatrix": [72, 0, 0, 72],
      "AngioFlag": "N",
      "BitsAllocated": 16,
      "BitsStored": 12,
      "BodyPartExamined": "BRAIN",
      "Columns": 504,
      "CountryOfResidence": "United States of America [1]",
      "EchoNumbers": 1,
      "EchoTime": 30.0,
      "EchoTrainLength": 72,
      "FlipAngle": 80.0,
      "HighBit": 11,
      "ImageOrientationPatient": [1.0, 0.0, 0.0, 0.0, 0.99970148981559, 0.02443217674489],
      "ImagePositionPatient": [-756.0, -749.90614125725, -69.314014040768],
      "ImageType": [
        "ORIGINAL",
        "PRIMARY",
        "M",
        "ND",
        "NORM",
        "MOSAIC"
],
      "ImagedNucleus": "1H",
      "ImagingFrequency": 123.181919,
      "InPlanePhaseEncodingDirection": "COL",
      "MRAcquisitionType": "2D",
      "MagneticFieldStrength": 3.0,
      "Manufacturer": "SIEMENS",
      "ManufacturerModelName": "Skyra",
      "Modality": "MR",
      "NumberOfAverages": 1.0,
      "NumberOfPhaseEncodingSteps": 72,
      "PercentPhaseFieldOfView": 100.0,
      "PercentSampling": 100.0,
      "PerformedProcedureStepStartTime": "160557.472000",
      "PhotometricInterpretation": "MONOCHROME2",
      "PixelBandwidth": 1985.0,
      "PixelRepresentation": 0,
      "PixelSpacing": [3.0, 3.0],
      "PregnancyStatus": 4,
      "ProcedureCodeSequence": [
        {
          "CodeMeaning": "MRI BRAIN WITHOUT IV CONTRAST",
          "CodeValue": "IMG269",
          "CodingSchemeDesignator": "L"
        }
],
      "ProtocolName": "TASK_AB",
      "RepetitionTime": 2500.0,
      "RequestAttributesSequence": [
        {
          "RequestedProcedureID": "125739968",
          "ScheduledProcedureStepDescription": "MRI BRAIN WITHOUT IV CONTRAST",
          "ScheduledProcedureStepID": "E9173253",
          "ScheduledProtocolCodeSequence": [
            {
              "CodeMeaning": "MRI BRAIN WITHOUT IV CONTRAST",
              "CodeValue": "651061",
              "CodingSchemeDesignator": "L"
            }
]
        }
],
      "RequestedProcedureCodeSequence": [
        {
          "CodeMeaning": "MRI BRAIN WITHOUT IV CONTRAST",
          "CodeValue": "IMG269",
          "CodingSchemeDesignator": "L"
        }
],
      "Rows": 504,
      "SAR": 0.11296905913876,
      "SamplesPerPixel": 1,
      "ScanOptions": "FS",
      "ScanningSequence": "EP",
      "SequenceName": "*epfid2d1_72",
      "SequenceVariant": "SK",
      "SeriesDescription": "TASK_AB",
      "SeriesNumber": 5,
      "SeriesTime": "161210.507000",
      "SliceLocation": -50.971483716378,
      "SliceThickness": 3.0,
      "SmallestImagePixelValue": 0,
      "SmokingStatus": "UNKNOWN",
      "SoftwareVersions": "syngo MR E11",
      "SpacingBetweenSlices": 3.000000004687,
      "SpecificCharacterSet": "ISO_IR 100",
      "StudyID": "125739968",
      "StudyTime": "160557.311000",
      "TransmitCoilName": "Body",
      "VariableFlipAngleFlag": "N",
      "WindowCenterWidthExplanation": "Algo1",
      "dBdt": 0.0},
    "slices": {}
  },
  "time": {
    "samples": {
      "AcquisitionNumber": [1, 2, 3, 4, 5, 6, 7, 8, 9, 10, 11, 12, 13, 14, 15, 16, 17, 18, 19, 20, 21, 22, 23, 24, 25, 26, 27, 28, 29, 30, 31, 32, 33, 34, 35, 36, 37, 38, 39, 40, 41, 42, 43, 44, 45, 46, 47, 48, 49, 50, 51, 52, 53, 54, 55, 56, 57, 58, 59, 60, 61, 62, 63, 64, 65, 66, 67, 68, 69, 70, 71, 72, 73, 74, 75, 76, 77, 78, 79, 80, 81, 82, 83, 84, 85, 86, 87, 88, 89, 90, 91, 92, 93, 94, 95, 96, 97, 98, 99, 100, 101, 102, 103, 104, 105, 106, 107, 108, 109, 110, 111, 112, 113, 114, 115, 116, 117, 118, 119, 120, 121, 122, 123, 124, 125, 126, 127, 128, 129, 130, 131, 132],
      "AcquisitionTime": ["161109.460000", "161111.960000", "161114.460000", "161116.960000", "161119.460000", "161121.960000", "161124.460000", "161126.960000", "161129.460000", "161131.960000", "161134.460000", "161136.960000", "161139.460000", "161141.960000", "161144.460000", "161146.960000", "161149.460000", "161151.960000", "161154.460000", "161156.960000", "161159.460000", "161201.960000", "161204.460000", "161206.960000", "161209.460000", "161211.960000", "161214.460000", "161216.960000", "161219.460000", "161221.960000", "161224.460000", "161226.960000", "161229.460000", "161231.960000", "161234.460000", "161236.960000", "161239.460000", "161241.960000", "161244.460000", "161246.960000", "161249.460000", "161251.960000", "161254.460000", "161256.960000", "161259.460000", "161301.960000", "161304.460000", "161306.960000", "161309.460000", "161311.960000", "161314.460000", "161316.960000", "161319.460000", "161321.960000", "161324.460000", "161326.960000", "161329.460000", "161331.960000", "161334.460000", "161336.960000", "161339.460000", "161341.960000", "161344.460000", "161346.960000", "161349.460000", "161351.960000", "161354.460000", "161356.960000", "161359.460000", "161401.960000", "161404.460000", "161406.960000", "161409.460000", "161411.960000", "161414.460000", "161416.960000", "161419.460000", "161421.960000", "161424.460000", "161426.960000", "161429.460000", "161431.960000", "161434.460000", "161436.960000", "161439.460000", "161441.960000", "161444.460000", "161446.960000", "161449.460000", "161451.960000", "161454.460000", "161456.960000", "161459.460000", "161501.960000", "161504.460000", "161506.960000", "161509.460000", "161511.960000", "161514.460000", "161516.960000", "161519.460000", "161521.960000", "161524.460000", "161526.960000", "161529.460000", "161531.960000", "161534.460000", "161536.960000", "161539.460000", "161541.960000", "161544.460000", "161546.960000", "161549.460000", "161551.960000", "161554.460000", "161556.960000", "161559.460000", "161601.960000", "161604.460000", "161606.960000", "161609.460000", "161611.960000", "161614.460000", "161616.960000", "161619.460000", "161621.960000", "161624.460000", "161626.960000", "161629.460000", "161631.960000", "161634.460000", "161636.960000"],
      "ContentTime": ["161210.511000", "161210.515000", "161210.517000", "161210.520000", "161210.522000", "161210.525000", "161210.528000", "161210.531000", "161210.533000", "161210.536000", "161210.539000", "161210.541000", "161210.544000", "161210.546000", "161210.549000", "161210.552000", "161210.554000", "161210.557000", "161210.560000", "161210.562000", "161210.565000", "161210.568000", "161210.570000", "161210.573000", "161310.506000", "161310.508000", "161310.511000", "161310.514000", "161310.517000", "161310.519000", "161310.522000", "161310.525000", "161310.527000", "161310.530000", "161310.532000", "161310.535000", "161310.538000", "161310.540000", "161310.543000", "161310.546000", "161310.548000", "161310.551000", "161310.554000", "161310.556000", "161310.559000", "161310.561000", "161310.564000", "161310.567000", "161410.505000", "161410.508000", "161410.510000", "161410.513000", "161410.515000", "161410.518000", "161410.521000", "161410.523000", "161410.526000", "161410.529000", "161410.531000", "161410.534000", "161410.537000", "161410.540000", "161410.542000", "161410.545000", "161410.554000", "161410.557000", "161410.559000", "161410.562000", "161410.565000", "161410.567000", "161410.570000", "161410.573000", "161510.506000", "161510.508000", "161510.511000", "161510.514000", "161510.517000", "161510.519000", "161510.522000", "161510.525000", "161510.527000", "161510.530000", "161510.532000", "161510.535000", "161510.538000", "161510.540000", "161510.543000", "161510.546000", "161510.548000", "161510.551000", "161510.553000", "161510.556000", "161510.559000", "161510.561000", "161510.564000", "161510.566000", "161550.506000", "161550.518000", "161550.521000", "161550.523000", "161550.526000", "161550.529000", "161550.531000", "161550.534000", "161550.537000", "161550.539000", "161550.542000", "161550.545000", "161550.547000", "161550.550000", "161550.553000", "161550.555000", "161638.770000", "161638.773000", "161638.775000", "161638.778000", "161638.781000", "161638.783000", "161638.786000", "161638.789000", "161638.791000", "161638.794000", "161638.797000", "161638.800000", "161638.806000", "161638.809000", "161638.812000", "161638.816000", "161638.820000", "161638.823000", "161638.829000", "161638.833000"],
      "InstanceCreationTime": ["161210.511000", "161210.515000", "161210.517000", "161210.520000", "161210.522000", "161210.525000", "161210.528000", "161210.531000", "161210.533000", "161210.536000", "161210.539000", "161210.541000", "161210.544000", "161210.546000", "161210.549000", "161210.552000", "161210.554000", "161210.557000", "161210.560000", "161210.562000", "161210.565000", "161210.568000", "161210.570000", "161210.573000", "161310.506000", "161310.508000", "161310.511000", "161310.514000", "161310.517000", "161310.519000", "161310.522000", "161310.525000", "161310.527000", "161310.530000", "161310.532000", "161310.535000", "161310.538000", "161310.540000", "161310.543000", "161310.546000", "161310.548000", "161310.551000", "161310.554000", "161310.556000", "161310.559000", "161310.561000", "161310.564000", "161310.567000", "161410.505000", "161410.508000", "161410.510000", "161410.513000", "161410.515000", "161410.518000", "161410.521000", "161410.523000", "161410.526000", "161410.529000", "161410.531000", "161410.534000", "161410.537000", "161410.540000", "161410.542000", "161410.545000", "161410.554000", "161410.557000", "161410.559000", "161410.562000", "161410.565000", "161410.567000", "161410.570000", "161410.573000", "161510.506000", "161510.508000", "161510.511000", "161510.514000", "161510.517000", "161510.519000", "161510.522000", "161510.525000", "161510.527000", "161510.530000", "161510.532000", "161510.535000", "161510.538000", "161510.540000", "161510.543000", "161510.546000", "161510.548000", "161510.551000", "161510.553000", "161510.556000", "161510.559000", "161510.561000", "161510.564000", "161510.566000", "161550.506000", "161550.518000", "161550.521000", "161550.523000", "161550.526000", "161550.529000", "161550.531000", "161550.534000", "161550.537000", "161550.539000", "161550.542000", "161550.545000", "161550.547000", "161550.550000", "161550.553000", "161550.555000", "161638.770000", "161638.773000", "161638.775000", "161638.778000", "161638.781000", "161638.783000", "161638.786000", "161638.789000", "161638.791000", "161638.794000", "161638.797000", "161638.800000", "161638.806000", "161638.809000", "161638.812000", "161638.816000", "161638.820000", "161638.823000", "161638.829000", "161638.833000"],
      "InstanceNumber": [1, 2, 3, 4, 5, 6, 7, 8, 9, 10, 11, 12, 13, 14, 15, 16, 17, 18, 19, 20, 21, 22, 23, 24, 25, 26, 27, 28, 29, 30, 31, 32, 33, 34, 35, 36, 37, 38, 39, 40, 41, 42, 43, 44, 45, 46, 47, 48, 49, 50, 51, 52, 53, 54, 55, 56, 57, 58, 59, 60, 61, 62, 63, 64, 65, 66, 67, 68, 69, 70, 71, 72, 73, 74, 75, 76, 77, 78, 79, 80, 81, 82, 83, 84, 85, 86, 87, 88, 89, 90, 91, 92, 93, 94, 95, 96, 97, 98, 99, 100, 101, 102, 103, 104, 105, 106, 107, 108, 109, 110, 111, 112, 113, 114, 115, 116, 117, 118, 119, 120, 121, 122, 123, 124, 125, 126, 127, 128, 129, 130, 131, 132],
      "LargestImagePixelValue": [1493, 1872, 1467, 1973, 1444, 1475, 1620, 1423, 1431, 1467, 1400, 1605, 1940, 1800, 1992, 1918, 1470, 2082, 1514, 1568, 1475, 1447, 1694, 1710, 1437, 1701, 1460, 1465, 1692, 1410, 1388, 1607, 1445, 1396, 1641, 1435, 1578, 1602, 1472, 1406, 1509, 1436, 1453, 1512, 1426, 1520, 1479, 1416, 1476, 1513, 1957, 1513, 1476, 1463, 1424, 1457, 1457, 1633, 1424, 1466, 1623, 1528, 1380, 1506, 1768, 1821, 1511, 1423, 1468, 1403, 1644, 1437, 2000, 2028, 1475, 1417, 1516, 1432, 1419, 1737, 1444, 1964, 1567, 1447, 1963, 2010, 1458, 1430, 1719, 1454, 1471, 1609, 1481, 1480, 1614, 2048, 1465, 1491, 1610, 1483, 1527, 1650, 1440, 1456, 1410, 1496, 1411, 1429, 1621, 1638, 1449, 1867, 2084, 1519, 1661, 1462, 1486, 1444, 1520, 1442, 1425, 1498, 1439, 1393, 1665, 2285, 1572, 1563, 2074, 2195, 1532, 1474],
      "WindowCenter": [613.0, 615.0, 611.0, 615.0, 612.0, 612.0, 611.0, 609.0, 612.0, 612.0, 611.0, 612.0, 613.0, 613.0, 614.0, 613.0, 611.0, 613.0, 610.0, 611.0, 611.0, 611.0, 612.0, 612.0, 610.0, 611.0, 610.0, 610.0, 612.0, 610.0, 610.0, 611.0, 610.0, 609.0, 612.0, 610.0, 611.0, 611.0, 610.0, 609.0, 610.0, 610.0, 611.0, 611.0, 609.0, 610.0, 611.0, 610.0, 611.0, 611.0, 613.0, 611.0, 610.0, 610.0, 610.0, 611.0, 611.0, 612.0, 610.0, 610.0, 611.0, 610.0, 608.0, 610.0, 611.0, 611.0, 610.0, 610.0, 611.0, 610.0, 612.0, 610.0, 613.0, 612.0, 610.0, 604.0, 610.0, 610.0, 610.0, 613.0, 610.0, 613.0, 612.0, 610.0, 613.0, 612.0, 609.0, 609.0, 611.0, 609.0, 609.0, 611.0, 610.0, 610.0, 610.0, 613.0, 609.0, 610.0, 611.0, 610.0, 610.0, 611.0, 610.0, 610.0, 609.0, 610.0, 610.0, 611.0, 612.0, 612.0, 610.0, 613.0, 613.0, 610.0, 611.0, 610.0, 610.0, 610.0, 610.0, 610.0, 611.0, 612.0, 608.0, 605.0, 613.0, 613.0, 611.0, 610.0, 613.0, 613.0, 610.0, 610.0],
      "WindowWidth": [1291.0, 1293.0, 1287.0, 1292.0, 1287.0, 1287.0, 1285.0, 1281.0, 1287.0, 1287.0, 1286.0, 1287.0, 1289.0, 1288.0, 1291.0, 1288.0, 1284.0, 1289.0, 1283.0, 1284.0, 1286.0, 1285.0, 1287.0, 1286.0, 1283.0, 1285.0, 1283.0, 1284.0, 1287.0, 1283.0, 1283.0, 1286.0, 1283.0, 1282.0, 1286.0, 1283.0, 1284.0, 1284.0, 1283.0, 1282.0, 1283.0, 1284.0, 1285.0, 1285.0, 1282.0, 1283.0, 1284.0, 1284.0, 1286.0, 1284.0, 1288.0, 1284.0, 1284.0, 1284.0, 1284.0, 1285.0, 1285.0, 1286.0, 1283.0, 1284.0, 1286.0, 1283.0, 1278.0, 1283.0, 1285.0, 1284.0, 1284.0, 1283.0, 1284.0, 1284.0, 1287.0, 1284.0, 1288.0, 1286.0, 1282.0, 1270.0, 1283.0, 1282.0, 1283.0, 1288.0, 1284.0, 1290.0, 1287.0, 1284.0, 1288.0, 1287.0, 1281.0, 1281.0, 1285.0, 1282.0, 1282.0, 1284.0, 1282.0, 1283.0, 1284.0, 1288.0, 1282.0, 1283.0, 1285.0, 1284.0, 1283.0, 1285.0, 1283.0, 1283.0, 1282.0, 1284.0, 1284.0, 1285.0, 1287.0, 1287.0, 1284.0, 1289.0, 1288.0, 1283.0, 1285.0, 1283.0, 1284.0, 1283.0, 1284.0, 1283.0, 1285.0, 1287.0, 1279.0, 1272.0, 1289.0, 1289.0, 1285.0, 1284.0, 1289.0, 1288.0, 1282.0, 1282.0]
    },
    "slices": {}
  }
}