{
  "AcquisitionMatrixPE": 72,
  "AcquisitionNumber": 1,
  "AcquisitionTime": "16:17:19.200000",
  "BandwidthPerPixelPhaseEncode": 24.366,
  "BaseResolution": 72,
  "BodyPartExamined": "BRAIN",
  "CoilCombinationMethod": "Sum of Squares",
  "ConsistencyInfo": "N4_VE11C_LATEST_20160120",
  "ConversionSoftware": "dcm2niix",
  "ConversionSoftwareVersion": "v1.0.20220720",
  "DerivedVendorReportedEchoSpacing": 0.000570011,
  "DeviceSerialNumber": "45219",
  "DwellTime": 3.5e-06,
  "EchoTime": 0.03,
  "EchoTrainLength": 72,
  "EffectiveEchoSpacing": 0.000570011,
  "FlipAngle": 80,
  "HeudiconvVersion": "1.1.6",
  "ImageComments": "Reference volume for motion correction.",
  "ImageOrientationPatientDICOM": [1, 0, 0, 0, 0.999701, 0.0244322],
  "ImageOrientationText": "Tra>Cor(1.4)",
  "ImageType": [
    "ORIGINAL",
    "PRIMARY",
    "M",
    "ND",
    "NORM",
    "MOCO",
    "MOSAIC"
],
  "ImagingFrequency": 123.182,
  "InPlanePhaseEncodingDirectionDICOM": "COL",
  "InstitutionAddress": "First Avenue 660,New York,NYC,US,10016",
  "InstitutionName": "NYU LANGONE CBI",
  "InstitutionalDepartmentName": "Department",
  "MRAcquisitionType": "2D",
  "MagneticFieldStrength": 3,
  "Manufacturer": "Siemens",
  "ManufacturersModelName": "Skyra",
  "MatrixCoilMode": "SENSE",
  "Modality": "MR",
  "NonlinearGradientCorrection": false,
  "PartialFourier": 1,
  "PatientPosition": "HFS",
  "PercentPhaseFOV": 100,
  "PercentSampling": 100,
  "PhaseEncodingDirection": "j-",
  "PhaseEncodingSteps": 72,
  "PhaseResolution": 1,
  "PixelBandwidth": 1985,
  "ProcedureStepDescription": "MRI BRAIN WITHOUT IV CONTRAST",
  "ProtocolName": "TASK_CD_MoCo",
  "PulseSequenceDetails": "%SiemensSeq%\\ep2d_bold",
  "ReceiveCoilActiveElements": "HE1-4",
  "ReceiveCoilName": "HeadNeck_20",
  "ReconMatrixPE": 72,
  "RepetitionTime": 2.5,
  "SAR": 0.112969,
  "ScanOptions": "FS",
  "ScanningSequence": "EP",
  "SequenceName": "*epfid2d1_72",
  "SequenceVariant": "SK",
  "SeriesDescription": "MoCoSeries",
  "SeriesNumber": 8,
  "ShimSetting": [-902, -6973, 5029, 263, -174, -367, 275, -103],
  "SliceThickness": 3,
  "SliceTiming": [1.24, 0, 1.305, 0.065, 1.37, 0.13, 1.435, 0.195, 1.5, 0.26, 1.565, 0.325, 1.63, 0.39, 1.6975, 0.4575, 1.7625, 0.5225, 1.8275, 0.5875, 1.8925, 0.6525, 1.9575, 0.7175, 2.0225, 0.7825, 2.0875, 0.8475, 2.1525, 0.9125, 2.2175, 0.9775, 2.2825, 1.0425, 2.35, 1.11, 2.415, 1.175],
  "SoftwareVersions": "syngo MR E11",
  "SpacingBetweenSlices": 3,
  "StationName": "MRC45219",
  "TaskName": "cd",
  "TotalReadoutTime": 0.0404708,
  "TxRefAmp": 423.464,
  "dcmmeta_affine": [
    [-3.0, 0.0, 0.0, 108.0],
    [0.0, 2.9991044998168945, 0.07329653203487396, -110.83683776855469],
    [0.0, -0.07329653203487396, 2.9991044998168945, -48.27790832519531],
    [0.0, 0.0, 0.0, 1.0]
],
  "dcmmeta_reorient_transform": [
    [0.0, -1.0, 0.0, 71.0],
    [1.0, 0.0, 0.0, 0.0],
    [0.0, 0.0, 1.0, 0.0],
    [0.0, 0.0, 0.0, 1.0]
],
  "dcmmeta_shape": [72, 72, 38, 132],
  "dcmmeta_slice_dim": 2,
  "dcmmeta_version": 0.6,
  "global": {
    "const": {
      "AcquisitionMatrix": [72, 0, 0, 72],
      "AngioFlag": "N",
      "BitsAllocated": 16,
      "BitsStored": 12,
      "BodyPartExamined": "BRAIN",
      "Columns": 504,
      "CountryOfResidence": "United States of America [1]",
      "EchoNumbers": 1,
      "EchoTime": 30.0,
      "EchoTrainLength": 72,
      "FlipAngle": 80.0,
      "HighBit": 11,
      "ImageOrientationPatient": [1.0, 0.0, 0.0, 0.0, 0.99970148981559, 0.02443217674489],
      "ImagePositionPatient": [-756.0, -749.90614125725, -69.314014040768],
      "ImageType": [
        "ORIGINAL",
        "PRIMARY",
        "M",
        "ND",
        "NORM",
        "MOCO",
        "MOSAIC"
],
      "ImagedNucleus": "1H",
      "ImagingFrequency": 123.181939,
      "InPlanePhaseEncodingDirection": "COL",
      "MRAcquisitionType": "2D",
      "MagneticFieldStrength": 3.0,
      "Manufacturer": "SIEMENS",
      "ManufacturerModelName": "Skyra",
      "Modality": "MR",
      "NumberOfAverages": 1.0,
      "NumberOfPhaseEncodingSteps": 72,
      "PercentPhaseFieldOfView": 100.0,
      "PercentSampling": 100.0,
      "PerformedProcedureStepStartTime": "160557.472000",
      "PhotometricInterpretation": "MONOCHROME2",
      "PixelBandwidth": 1985.0,
      "PixelRepresentation": 0,
      "PixelSpacing": [3.0, 3.0],
      "PregnancyStatus": 4,
      "ProcedureCodeSequence": [
        {
          "CodeMeaning": "MRI BRAIN WITHOUT IV CONTRAST",
          "CodeValue": "IMG269",
          "CodingSchemeDesignator": "L"
        }
],
      "ProtocolName": "TASK_CD",
      "RepetitionTime": 2500.0,
      "RequestAttributesSequence": [
        {
          "RequestedProcedureID": "125739968",
          "ScheduledProcedureStepDescription": "MRI BRAIN WITHOUT IV CONTRAST",
          "ScheduledProcedureStepID": "E9173253",
          "ScheduledProtocolCodeSequence": [
            {
              "CodeMeaning": "MRI BRAIN WITHOUT IV CONTRAST",
              "CodeValue": "651061",
              "CodingSchemeDesignator": "L"
            }
]
        }
],
      "RequestedProcedureCodeSequence": [
        {
          "CodeMeaning": "MRI BRAIN WITHOUT IV CONTRAST",
          "CodeValue": "IMG269",
          "CodingSchemeDesignator": "L"
        }
],
      "Rows": 504,
      "SAR": 0.11296905913876,
      "SamplesPerPixel": 1,
      "ScanOptions": "FS",
      "ScanningSequence": "EP",
      "SequenceName": "*epfid2d1_72",
      "SequenceVariant": "SK",
      "SeriesDescription": "MoCoSeries",
      "SeriesNumber": 8,
      "SeriesTime": "161809.075000",
      "SliceLocation": -50.971483716378,
      "SliceThickness": 3.0,
      "SmallestImagePixelValue": 0,
      "SmokingStatus": "UNKNOWN",
      "SoftwareVersions": "syngo MR E11",
      "SpacingBetweenSlices": 3.000000004687,
      "SpecificCharacterSet": "ISO_IR 100",
      "StudyID": "125739968",
      "StudyTime": "160557.311000",
      "TransmitCoilName": "Body",
      "VariableFlipAngleFlag": "N",
      "WindowCenterWidthExplanation": "Algo1",
      "dBdt": 0.0},
    "slices": {}
  },
  "time": {
    "samples": {
      "AcquisitionNumber": [1, 2, 3, 4, 5, 6, 7, 8, 9, 10, 11, 12, 13, 14, 15, 16, 17, 18, 19, 20, 21, 22, 23, 24, 25, 26, 27, 28, 29, 30, 31, 32, 33, 34, 35, 36, 37, 38, 39, 40, 41, 42, 43, 44, 45, 46, 47, 48, 49, 50, 51, 52, 53, 54, 55, 56, 57, 58, 59, 60, 61, 62, 63, 64, 65, 66, 67, 68, 69, 70, 71, 72, 73, 74, 75, 76, 77, 78, 79, 80, 81, 82, 83, 84, 85, 86, 87, 88, 89, 90, 91, 92, 93, 94, 95, 96, 97, 98, 99, 100, 101, 102, 103, 104, 105, 106, 107, 108, 109, 110, 111, 112, 113, 114, 115, 116, 117, 118, 119, 120, 121, 122, 123, 124, 125, 126, 127, 128, 129, 130, 131, 132],
      "AcquisitionTime": ["161719.200000", "161721.700000", "161724.200000", "161726.700000", "161729.200000", "161731.700000", "161734.200000", "161736.700000", "161739.200000", "161741.700000", "161744.200000", "161746.700000", "161749.200000", "161751.700000", "161754.200000", "161756.700000", "161759.200000", "161801.700000", "161804.200000", "161806.700000", "161809.200000", "161811.700000", "161814.200000", "161816.700000", "161819.200000", "161821.700000", "161824.200000", "161826.700000", "161829.200000", "161831.700000", "161834.200000", "161836.700000", "161839.200000", "161841.700000", "161844.200000", "161846.700000", "161849.200000", "161851.700000", "161854.200000", "161856.700000", "161859.200000", "161901.700000", "161904.200000", "161906.700000", "161909.200000", "161911.700000", "161914.200000", "161916.700000", "161919.200000", "161921.700000", "161924.200000", "161926.700000", "161929.200000", "161931.700000", "161934.200000", "161936.700000", "161939.200000", "161941.700000", "161944.200000", "161946.700000", "161949.200000", "161951.700000", "161954.200000", "161956.700000", "161959.200000", "162001.700000", "162004.200000", "162006.700000", "162009.200000", "162011.700000", "162014.200000", "162016.700000", "162019.200000", "162021.700000", "162024.200000", "162026.700000", "162029.200000", "162031.700000", "162034.200000", "162036.700000", "162039.200000", "162041.700000", "162044.200000", "162046.700000", "162049.200000", "162051.700000", "162054.200000", "162056.700000", "162059.200000", "162101.700000", "162104.200000", "162106.700000", "162109.200000", "162111.700000", "162114.200000", "162116.700000", "162119.200000", "162121.700000", "162124.200000", "162126.700000", "162129.200000", "162131.700000", "162134.200000", "162136.700000", "162139.200000", "162141.700000", "162144.200000", "162146.700000", "162149.200000", "162151.700000", "162154.200000", "162156.700000", "162159.200000", "162201.700000", "162204.200000", "162206.700000", "162209.200000", "162211.700000", "162214.200000", "162216.700000", "162219.200000", "162221.700000", "162224.200000", "162226.700000", "162229.200000", "162231.700000", "162234.200000", "162236.700000", "162239.200000", "162241.700000", "162244.200000", "162246.700000"],
      "ContentTime": ["161809.077000", "161809.081000", "161809.083000", "161809.086000", "161809.089000", "161809.092000", "161809.094000", "161809.097000", "161809.100000", "161809.102000", "161809.105000", "161809.108000", "161809.111000", "161809.113000", "161809.116000", "161809.119000", "161809.121000", "161809.124000", "161809.127000", "161809.129000", "161909.063000", "161909.066000", "161909.069000", "161909.072000", "161909.075000", "161909.077000", "161909.080000", "161909.083000", "161909.085000", "161909.088000", "161909.091000", "161909.094000", "161909.096000", "161909.099000", "161909.102000", "161909.105000", "161909.107000", "161909.110000", "161909.113000", "161909.116000", "161909.118000", "161909.121000", "161909.124000", "161909.126000", "162009.057000", "162009.060000", "162009.062000", "162009.065000", "162009.068000", "162009.071000", "162009.073000", "162009.076000", "162009.079000", "162009.081000", "162009.087000", "162009.089000", "162009.092000", "162009.095000", "162009.098000", "162009.100000", "162009.103000", "162009.106000", "162009.109000", "162009.111000", "162009.114000", "162009.117000", "162009.120000", "162009.122000", "162109.067000", "162109.070000", "162109.073000", "162109.076000", "162109.078000", "162109.081000", "162109.084000", "162109.087000", "162109.089000", "162109.092000", "162109.095000", "162109.097000", "162109.100000", "162109.103000", "162109.106000", "162109.109000", "162109.111000", "162109.114000", "162109.117000", "162109.119000", "162109.122000", "162109.125000", "162109.128000", "162109.130000", "162209.090000", "162209.093000", "162209.095000", "162209.098000", "162209.101000", "162209.103000", "162209.106000", "162209.109000", "162209.111000", "162209.118000", "162209.121000", "162209.123000", "162209.126000", "162209.129000", "162209.132000", "162209.134000", "162209.137000", "162209.140000", "162209.143000", "162209.145000", "162209.148000", "162209.151000", "162209.153000", "162209.156000", "162248.157000", "162248.160000", "162248.163000", "162248.166000", "162248.169000", "162248.172000", "162248.175000", "162248.177000", "162248.180000", "162248.183000", "162248.186000", "162248.188000", "162248.191000", "162248.194000", "162248.197000", "162248.199000"],
      "InstanceCreationTime": ["161809.077000", "161809.081000", "161809.083000", "161809.086000", "161809.089000", "161809.092000", "161809.094000", "161809.097000", "161809.100000", "161809.102000", "161809.105000", "161809.108000", "161809.111000", "161809.113000", "161809.116000", "161809.119000", "161809.121000", "161809.124000", "161809.127000", "161809.129000", "161909.063000", "161909.066000", "161909.069000", "161909.072000", "161909.075000", "161909.077000", "161909.080000", "161909.083000", "161909.085000", "161909.088000", "161909.091000", "161909.094000", "161909.096000", "161909.099000", "161909.102000", "161909.105000", "161909.107000", "161909.110000", "161909.113000", "161909.116000", "161909.118000", "161909.121000", "161909.124000", "161909.126000", "162009.057000", "162009.060000", "162009.062000", "162009.065000", "162009.068000", "162009.071000", "162009.073000", "162009.076000", "162009.079000", "162009.081000", "162009.087000", "162009.089000", "162009.092000", "162009.095000", "162009.098000", "162009.100000", "162009.103000", "162009.106000", "162009.109000", "162009.111000", "162009.114000", "162009.117000", "162009.120000", "162009.122000", "162109.067000", "162109.070000", "162109.073000", "162109.076000", "162109.078000", "162109.081000", "162109.084000", "162109.087000", "162109.089000", "162109.092000", "162109.095000", "162109.097000", "162109.100000", "162109.103000", "162109.106000", "162109.109000", "162109.111000", "162109.114000", "162109.117000", "162109.119000", "162109.122000", "162109.125000", "162109.128000", "162109.130000", "162209.090000", "162209.093000", "162209.095000", "162209.098000", "162209.101000", "162209.103000", "162209.106000", "162209.109000", "162209.111000", "162209.118000", "162209.121000", "162209.123000", "162209.126000", "162209.129000", "162209.132000", "162209.134000", "162209.137000", "162209.140000", "162209.143000", "162209.145000", "162209.148000", "162209.151000", "162209.153000", "162209.156000", "162248.157000", "162248.160000", "162248.163000", "162248.166000", "162248.169000", "162248.172000", "162248.175000", "162248.177000", "162248.180000", "162248.183000", "162248.186000", "162248.188000", "162248.191000", "162248.194000", "162248.197000", "162248.199000"],
      "InstanceNumber": [1, 2, 3, 4, 5, 6, 7, 8, 9, 10, 11, 12, 13, 14, 15, 16, 17, 18, 19, 20, 21, 22, 23, 24, 25, 26, 27, 28, 29, 30, 31, 32, 33, 34, 35, 36, 37, 38, 39, 40, 41, 42, 43, 44, 45, 46, 47, 48, 49, 50, 51, 52, 53, 54, 55, 56, 57, 58, 59, 60, 61, 62, 63, 64, 65, 66, 67, 68, 69, 70, 71, 72, 73, 74, 75, 76, 77, 78, 79, 80, 81, 82, 83, 84, 85, 86, 87, 88, 89, 90, 91, 92, 93, 94, 95, 96, 97, 98, 99, 100, 101, 102, 103, 104, 105, 106, 107, 108, 109, 110, 111, 112, 113, 114, 115, 116, 117, 118, 119, 120, 121, 122, 123, 124, 125, 126, 127, 128, 129, 130, 131, 132],
      "LargestImagePixelValue": [1783, 1504, 1488, 1573, 1508, 2142, 1515, 1656, 1459, 1633, 1509, 1458, 1685, 1619, 1750, 1492, 1475, 1603, 1529, 2077, 1612, 1500, 1600, 1470, 1496, 1605, 1750, 1487, 1716, 1680, 1538, 1857, 1578, 1503, 1554, 1694, 1582, 1478, 1596, 1469, 1518, 1615, 1522, 1475, 1581, 1646, 1511, 1527, 1452, 1511, 1535, 1436, 1795, 1750, 1542, 1469, 1483, 1616, 1548, 1548, 1853, 1549, 1615, 1474, 1756, 1743, 1734, 1501, 1524, 1473, 1491, 1736, 1771, 1794, 1733, 1999, 1585, 1492, 1762, 1883, 1796, 1517, 1637, 1740, 1610, 1552, 1598, 1602, 1518, 1778, 2028, 1590, 1524, 1795, 1561, 1983, 1701, 1576, 1515, 1684, 1846, 1493, 1520, 1719, 1706, 1496, 1823, 1597, 1624, 1630, 1622, 1498, 1920, 1752, 1487, 1669, 1684, 1519, 1493, 1720, 1877, 1816, 1558, 1806, 1862, 1577, 1556, 1638, 1792, 1733, 1694, 1677],
      "WindowCenter": [613.0, 614.0, 616.0, 616.0, 615.0, 618.0, 614.0, 614.0, 613.0, 615.0, 615.0, 614.0, 617.0, 616.0, 616.0, 616.0, 616.0, 616.0, 615.0, 618.0, 615.0, 614.0, 614.0, 614.0, 615.0, 616.0, 617.0, 614.0, 616.0, 616.0, 615.0, 616.0, 614.0, 614.0, 615.0, 616.0, 615.0, 614.0, 616.0, 614.0, 614.0, 615.0, 615.0, 614.0, 615.0, 616.0, 615.0, 615.0, 615.0, 616.0, 615.0, 615.0, 617.0, 615.0, 614.0, 614.0, 614.0, 615.0, 615.0, 615.0, 617.0, 615.0, 615.0, 605.0, 616.0, 616.0, 615.0, 613.0, 614.0, 614.0, 614.0, 615.0, 617.0, 617.0, 616.0, 617.0, 614.0, 614.0, 615.0, 616.0, 615.0, 613.0, 614.0, 615.0, 615.0, 614.0, 615.0, 615.0, 615.0, 617.0, 617.0, 615.0, 614.0, 616.0, 614.0, 616.0, 615.0, 615.0, 615.0, 615.0, 616.0, 614.0, 614.0, 615.0, 615.0, 613.0, 615.0, 614.0, 615.0, 615.0, 614.0, 613.0, 616.0, 616.0, 613.0, 615.0, 615.0, 615.0, 615.0, 616.0, 617.0, 617.0, 614.0, 616.0, 617.0, 614.0, 614.0, 615.0, 616.0, 615.0, 615.0, 615.0],
      "WindowWidth": [1289.0, 1293.0, 1298.0, 1298.0, 1295.0, 1300.0, 1292.0, 1293.0, 1291.0, 1295.0, 1294.0, 1294.0, 1298.0, 1296.0, 1297.0, 1296.0, 1297.0, 1298.0, 1295.0, 1300.0, 1295.0, 1293.0, 1293.0, 1292.0, 1295.0, 1296.0, 1298.0, 1293.0, 1296.0, 1297.0, 1294.0, 1297.0, 1293.0, 1293.0, 1295.0, 1297.0, 1294.0, 1293.0, 1296.0, 1294.0, 1293.0, 1294.0, 1294.0, 1294.0, 1296.0, 1296.0, 1295.0, 1295.0, 1295.0, 1296.0, 1295.0, 1295.0, 1298.0, 1295.0, 1292.0, 1292.0, 1293.0, 1295.0, 1295.0, 1295.0, 1298.0, 1294.0, 1294.0, 1271.0, 1297.0, 1297.0, 1294.0, 1291.0, 1293.0, 1293.0, 1293.0, 1295.0, 1297.0, 1299.0, 1297.0, 1298.0, 1293.0, 1292.0, 1295.0, 1296.0, 1294.0, 1291.0, 1293.0, 1295.0, 1294.0, 1294.0, 1295.0, 1295.0, 1295.0, 1298.0, 1298.0, 1294.0, 1293.0, 1296.0, 1292.0, 1297.0, 1294.0, 1295.0, 1294.0, 1295.0, 1296.0, 1292.0, 1292.0, 1295.0, 1295.0, 1291.0, 1294.0, 1292.0, 1294.0, 1294.0, 1293.0, 1290.0, 1296.0, 1296.0, 1291.0, 1294.0, 1295.0, 1294.0, 1295.0, 1297.0, 1299.0, 1298.0, 1293.0, 1296.0, 1297.0, 1293.0, 1292.0, 1294.0, 1297.0, 1295.0, 1294.0, 1295.0]
    },
    "slices": {}
  }
}