{
  "AcquisitionMatrixPE": 72,
  "AcquisitionNumber": 1,
  "AcquisitionTime": "19:45:13.512500",
  "BodyPartExamined": "BRAIN",
  "ConversionSoftware": "dcm2niix",
  "ConversionSoftwareVersion": "v1.0.20220720",
  "DeviceSerialNumber": "45219",
  "EchoNumber": 2,
  "EchoTime": 0.00738,
  "EchoTime1": 0.00492,
  "EchoTime2": 0.00738,
  "FlipAngle": 60,
  "HeudiconvVersion": "1.1.6",
  "ImageOrientationPatientDICOM": [0.998683, 0.0110407, 0.0501041, -0.0156886, 0.995511, 0.0933411],
  "ImageType": [
    "ORIGINAL",
    "PRIMARY",
    "P",
    "ND",
    "PHASE"
],
  "ImagingFrequency": 123.182,
  "InPlanePhaseEncodingDirectionDICOM": "ROW",
  "MRAcquisitionType": "2D",
  "MagneticFieldStrength": 3,
  "Manufacturer": "Siemens",
  "ManufacturersModelName": "DicomCleaner",
  "Modality": "MR",
  "NonlinearGradientCorrection": false,
  "PatientPosition": "HFS",
  "PercentPhaseFOV": 100,
  "PercentSampling": 100,
  "PhaseEncodingAxis": "i",
  "PhaseEncodingSteps": 72,
  "PixelBandwidth": 290,
  "ProtocolName": "gre_fm_bold",
  "ReconMatrixPE": 72,
  "RepetitionTime": 0.444,
  "SAR": 0.183566,
  "ScanningSequence": "GR",
  "SequenceName": "*fm2d2r",
  "SequenceVariant": "SP",
  "SeriesDescription": "gre_fm_bold",
  "SeriesNumber": 5,
  "SliceThickness": 3,
  "SliceTiming": [0.21875, 0, 0.23438, 0, 0.23438, 0.01562, 0.25, 0.03125, 0.26562, 0.04688, 0.28125, 0.04688, 0.28125, 0.0625, 0.29688, 0.07812, 0.3125, 0.09375, 0.32812, 0.09375, 0.32812, 0.10938, 0.34375, 0.125, 0.35938, 0.14062, 0.375, 0.14062, 0.375, 0.15625, 0.39062, 0.17188, 0.40625, 0.1875, 0.42188, 0.1875, 0.42188, 0.20312],
  "SoftwareVersions": "Tue Feb 12 18:07:17 EST 2019",
  "SpacingBetweenSlices": 3,
  "StationName": "PIERRJ03PC",
  "dcmmeta_affine": [
    [-2.996048927307129, -0.047065701335668564, 0.14654541015625, 113.89583587646484],
    [-0.03312209993600845, 2.9865317344665527, 0.28201279044151306, -113.41281127929688],
    [0.15031221508979797, -0.28002339601516724, 2.983123779296875, -19.28839874267578],
    [0.0, 0.0, 0.0, 1.0]
],
  "dcmmeta_reorient_transform": [
    [0.0, -1.0, 0.0, 71.0],
    [1.0, 0.0, 0.0, 0.0],
    [0.0, 0.0, -1.0, 37.0],
    [0.0, 0.0, 0.0, 1.0]
],
  "dcmmeta_shape": [72, 72, 38],
  "dcmmeta_slice_dim": 2,
  "dcmmeta_version": 0.6,
  "global": {
    "const": {
      "AcquisitionMatrix": [0, 72, 72, 0],
      "AcquisitionNumber": 1,
      "AngioFlag": "N",
      "BitsAllocated": 16,
      "BitsStored": 12,
      "BodyPartExamined": "BRAIN",
      "Columns": 72,
      "DeidentificationMethod": [
        "Deidentified",
        "Descriptors removed except series except protocol",
        "Patient Characteristics removed",
        "Device identity retained",
        "Institution identity removed",
        "Dates retained",
        "Structured content modified",
        "Unsafe private removed",
        "UIDs remapped"
],
      "DeidentificationMethodCodeSequence": [
        {
          "CodeMeaning": "Basic Application Confidentiality Profile",
          "CodeValue": "113100",
          "CodingSchemeDesignator": "DCM"
        },
        {
          "CodeMeaning": "Remove all descriptors except Series Description & Protocol Name",
          "CodeValue": "210008",
          "CodingSchemeDesignator": "99PMP"
        },
        {
          "CodeMeaning": "Retain Device Identity Option",
          "CodeValue": "113109",
          "CodingSchemeDesignator": "DCM"
        },
        {
          "CodeMeaning": "Retain Longitudinal Temporal Information Full Dates Option",
          "CodeValue": "113106",
          "CodingSchemeDesignator": "DCM"
        },
        {
          "CodeMeaning": "Clean Structured Content Option",
          "CodeValue": "113104",
          "CodingSchemeDesignator": "DCM"
        },
        {
          "CodeMeaning": "Retain Safe Private Option",
          "CodeValue": "113111",
          "CodingSchemeDesignator": "DCM"
        },
        {
          "CodeMeaning": "Remap UIDs",
          "CodeValue": "210001",
          "CodingSchemeDesignator": "99PMP"
        }
],
      "EchoNumbers": 2,
      "EchoTime": 7.38,
      "EchoTrainLength": 0,
      "FlipAngle": 60.0,
      "HighBit": 11,
      "ImageOrientationPatient": [0.99868297529051, 0.01104070005279, 0.05010406976725, -0.015688566581, 0.99551057327356, 0.09334113444338],
      "ImageType": [
        "ORIGINAL",
        "PRIMARY",
        "P",
        "ND"
],
      "ImagedNucleus": "1H",
      "ImagingFrequency": 123.1819,
      "InPlanePhaseEncodingDirection": "ROW",
      "MRAcquisitionType": "2D",
      "MagneticFieldStrength": 3.0,
      "Manufacturer": "SIEMENS",
      "ManufacturerModelName": "Skyra",
      "Modality": "MR",
      "NumberOfAverages": 1.0,
      "NumberOfPhaseEncodingSteps": 72,
      "PercentPhaseFieldOfView": 100.0,
      "PercentSampling": 100.0,
      "PerformedProcedureStepStartTime": "193744.640000",
      "PhotometricInterpretation": "MONOCHROME2",
      "PixelBandwidth": 290.0,
      "PixelRepresentation": 0,
      "PixelSpacing": [3.0, 3.0],
      "ProcedureCodeSequence": [
        {
          "CodeMeaning": "MRI BRAIN WITHOUT IV CONTRAST",
          "CodeValue": "IMG269",
          "CodingSchemeDesignator": "L"
        }
],
      "ProtocolName": "gre_fm_bold",
      "RepetitionTime": 444.0,
      "RequestedProcedureCodeSequence": [
        {
          "CodeMeaning": "MRI BRAIN WITHOUT IV CONTRAST",
          "CodeValue": "IMG269",
          "CodingSchemeDesignator": "L"
        }
],
      "RescaleIntercept": -4096.0,
      "RescaleSlope": 2.0,
      "RescaleType": "US",
      "Rows": 72,
      "SAR": 0.18356646381345,
      "SamplesPerPixel": 1,
      "ScanningSequence": "GR",
      "SequenceName": "*fm2d2r",
      "SequenceVariant": "SP",
      "SeriesDescription": "gre_fm_bold",
      "SeriesNumber": 5,
      "SeriesTime": "194617.457000",
      "SliceThickness": 3.0,
      "SoftwareVersions": "syngo MR E11",
      "SpacingBetweenSlices": 3.0,
      "StudyTime": "193744.491000",
      "TransmitCoilName": "Body",
      "VariableFlipAngleFlag": "N",
      "WindowCenterWidthExplanation": "Algo1",
      "dBdt": 0.0},
    "slices": {
      "AcquisitionTime": ["194513.512500", "194513.292500", "194513.525000", "194513.302500", "194513.537500", "194513.315000", "194513.547500", "194513.327500", "194513.560000", "194513.337500", "194513.572500", "194513.350000", "194513.582500", "194513.362500", "194513.595000", "194513.372500", "194513.607500", "194513.385000", "194513.620000", "194513.397500", "194513.630000", "194513.407500", "194513.642500", "194513.420000", "194513.655000", "194513.432500", "194513.665000", "194513.442500", "194513.677500", "194513.455000", "194513.690000", "194513.467500", "194513.700000", "194513.477500", "194513.712500", "194513.490000", "194513.725000", "194513.502500"],
      "ContentTime": ["194617.518000", "194617.462000", "194617.520000", "194617.472000", "194617.523000", "194617.475000", "194617.525000", "194617.477000", "194617.528000", "194617.480000", "194617.531000", "194617.485000", "194617.533000", "194617.487000", "194617.536000", "194617.489000", "194617.542000", "194617.491000", "194617.547000", "194617.494000", "194617.550000", "194617.496000", "194617.557000", "194617.498000", "194617.561000", "194617.501000", "194617.571000", "194617.503000", "194617.574000", "194617.506000", "194617.577000", "194617.508000", "194617.579000", "194617.510000", "194617.581000", "194617.513000", "194617.584000", "194617.515000"],
      "ContributingEquipmentSequence": [
        [
          {
            "ContributionDateTime": "20200312121517.082-0400",
            "ContributionDescription": "Cleaned",
            "Manufacturer": "PixelMed",
            "ManufacturerModelName": "DicomCleaner",
            "PurposeOfReferenceCodeSequence": [
              {
                "CodeMeaning": "De-identifying Equipment",
                "CodeValue": "109104",
                "CodingSchemeDesignator": "DCM"
              }
],
            "SoftwareVersions": "Tue Feb 12 18:07:17 EST 2019",
            "StationName": "PIERRJ03PC"
          }
],
        [
          {
            "ContributionDateTime": "20200312121517.093-0400",
            "ContributionDescription": "Cleaned",
            "Manufacturer": "PixelMed",
            "ManufacturerModelName": "DicomCleaner",
            "PurposeOfReferenceCodeSequence": [
              {
                "CodeMeaning": "De-identifying Equipment",
                "CodeValue": "109104",
                "CodingSchemeDesignator": "DCM"
              }
],
            "SoftwareVersions": "Tue Feb 12 18:07:17 EST 2019",
            "StationName": "PIERRJ03PC"
          }
],
        [
          {
            "ContributionDateTime": "20200312121517.103-0400",
            "ContributionDescription": "Cleaned",
            "Manufacturer": "PixelMed",
            "ManufacturerModelName": "DicomCleaner",
            "PurposeOfReferenceCodeSequence": [
              {
                "CodeMeaning": "De-identifying Equipment",
                "CodeValue": "109104",
                "CodingSchemeDesignator": "DCM"
              }
],
            "SoftwareVersions": "Tue Feb 12 18:07:17 EST 2019",
            "StationName": "PIERRJ03PC"
          }
],
        [
          {
            "ContributionDateTime": "20200312121517.113-0400",
            "ContributionDescription": "Cleaned",
            "Manufacturer": "PixelMed",
            "ManufacturerModelName": "DicomCleaner",
            "PurposeOfReferenceCodeSequence": [
              {
                "CodeMeaning": "De-identifying Equipment",
                "CodeValue": "109104",
                "CodingSchemeDesignator": "DCM"
              }
],
            "SoftwareVersions": "Tue Feb 12 18:07:17 EST 2019",
            "StationName": "PIERRJ03PC"
          }
],
        [
          {
            "ContributionDateTime": "20200312121517.125-0400",
            "ContributionDescription": "Cleaned",
            "Manufacturer": "PixelMed",
            "ManufacturerModelName": "DicomCleaner",
            "PurposeOfReferenceCodeSequence": [
              {
                "CodeMeaning": "De-identifying Equipment",
                "CodeValue": "109104",
                "CodingSchemeDesignator": "DCM"
              }
],
            "SoftwareVersions": "Tue Feb 12 18:07:17 EST 2019",
            "StationName": "PIERRJ03PC"
          }
],
        [
          {
            "ContributionDateTime": "20200312121517.136-0400",
            "ContributionDescription": "Cleaned",
            "Manufacturer": "PixelMed",
            "ManufacturerModelName": "DicomCleaner",
            "PurposeOfReferenceCodeSequence": [
              {
                "CodeMeaning": "De-identifying Equipment",
                "CodeValue": "109104",
                "CodingSchemeDesignator": "DCM"
              }
],
            "SoftwareVersions": "Tue Feb 12 18:07:17 EST 2019",
            "StationName": "PIERRJ03PC"
          }
],
        [
          {
            "ContributionDateTime": "20200312121517.149-0400",
            "ContributionDescription": "Cleaned",
            "Manufacturer": "PixelMed",
            "ManufacturerModelName": "DicomCleaner",
            "PurposeOfReferenceCodeSequence": [
              {
                "CodeMeaning": "De-identifying Equipment",
                "CodeValue": "109104",
                "CodingSchemeDesignator": "DCM"
              }
],
            "SoftwareVersions": "Tue Feb 12 18:07:17 EST 2019",
            "StationName": "PIERRJ03PC"
          }
],
        [
          {
            "ContributionDateTime": "20200312121517.159-0400",
            "ContributionDescription": "Cleaned",
            "Manufacturer": "PixelMed",
            "ManufacturerModelName": "DicomCleaner",
            "PurposeOfReferenceCodeSequence": [
              {
                "CodeMeaning": "De-identifying Equipment",
                "CodeValue": "109104",
                "CodingSchemeDesignator": "DCM"
              }
],
            "SoftwareVersions": "Tue Feb 12 18:07:17 EST 2019",
            "StationName": "PIERRJ03PC"
          }
],
        [
          {
            "ContributionDateTime": "20200312121517.169-0400",
            "ContributionDescription": "Cleaned",
            "Manufacturer": "PixelMed",
            "ManufacturerModelName": "DicomCleaner",
            "PurposeOfReferenceCodeSequence": [
              {
                "CodeMeaning": "De-identifying Equipment",
                "CodeValue": "109104",
                "CodingSchemeDesignator": "DCM"
              }
],
            "SoftwareVersions": "Tue Feb 12 18:07:17 EST 2019",
            "StationName": "PIERRJ03PC"
          }
],
        [
          {
            "ContributionDateTime": "20200312121517.180-0400",
            "ContributionDescription": "Cleaned",
            "Manufacturer": "PixelMed",
            "ManufacturerModelName": "DicomCleaner",
            "PurposeOfReferenceCodeSequence": [
              {
                "CodeMeaning": "De-identifying Equipment",
                "CodeValue": "109104",
                "CodingSchemeDesignator": "DCM"
              }
],
            "SoftwareVersions": "Tue Feb 12 18:07:17 EST 2019",
            "StationName": "PIERRJ03PC"
          }
],
        [
          {
            "ContributionDateTime": "20200312121517.190-0400",
            "ContributionDescription": "Cleaned",
            "Manufacturer": "PixelMed",
            "ManufacturerModelName": "DicomCleaner",
            "PurposeOfReferenceCodeSequence": [
              {
                "CodeMeaning": "De-identifying Equipment",
                "CodeValue": "109104",
                "CodingSchemeDesignator": "DCM"
              }
],
            "SoftwareVersions": "Tue Feb 12 18:07:17 EST 2019",
            "StationName": "PIERRJ03PC"
          }
],
        [
          {
            "ContributionDateTime": "20200312121517.200-0400",
            "ContributionDescription": "Cleaned",
            "Manufacturer": "PixelMed",
            "ManufacturerModelName": "DicomCleaner",
            "PurposeOfReferenceCodeSequence": [
              {
                "CodeMeaning": "De-identifying Equipment",
                "CodeValue": "109104",
                "CodingSchemeDesignator": "DCM"
              }
],
            "SoftwareVersions": "Tue Feb 12 18:07:17 EST 2019",
            "StationName": "PIERRJ03PC"
          }
],
        [
          {
            "ContributionDateTime": "20200312121517.208-0400",
            "ContributionDescription": "Cleaned",
            "Manufacturer": "PixelMed",
            "ManufacturerModelName": "DicomCleaner",
            "PurposeOfReferenceCodeSequence": [
              {
                "CodeMeaning": "De-identifying Equipment",
                "CodeValue": "109104",
                "CodingSchemeDesignator": "DCM"
              }
],
            "SoftwareVersions": "Tue Feb 12 18:07:17 EST 2019",
            "StationName": "PIERRJ03PC"
          }
],
        [
          {
            "ContributionDateTime": "20200312121517.218-0400",
            "ContributionDescription": "Cleaned",
            "Manufacturer": "PixelMed",
            "ManufacturerModelName": "DicomCleaner",
            "PurposeOfReferenceCodeSequence": [
              {
                "CodeMeaning": "De-identifying Equipment",
                "CodeValue": "109104",
                "CodingSchemeDesignator": "DCM"
              }
],
            "SoftwareVersions": "Tue Feb 12 18:07:17 EST 2019",
            "StationName": "PIERRJ03PC"
          }
],
        [
          {
            "ContributionDateTime": "20200312121517.229-0400",
            "ContributionDescription": "Cleaned",
            "Manufacturer": "PixelMed",
            "ManufacturerModelName": "DicomCleaner",
            "PurposeOfReferenceCodeSequence": [
              {
                "CodeMeaning": "De-identifying Equipment",
                "CodeValue": "109104",
                "CodingSchemeDesignator": "DCM"
              }
],
            "SoftwareVersions": "Tue Feb 12 18:07:17 EST 2019",
            "StationName": "PIERRJ03PC"
          }
],
        [
          {
            "ContributionDateTime": "20200312121517.238-0400",
            "ContributionDescription": "Cleaned",
            "Manufacturer": "PixelMed",
            "ManufacturerModelName": "DicomCleaner",
            "PurposeOfReferenceCodeSequence": [
              {
                "CodeMeaning": "De-identifying Equipment",
                "CodeValue": "109104",
                "CodingSchemeDesignator": "DCM"
              }
],
            "SoftwareVersions": "Tue Feb 12 18:07:17 EST 2019",
            "StationName": "PIERRJ03PC"
          }
],
        [
          {
            "ContributionDateTime": "20200312121517.248-0400",
            "ContributionDescription": "Cleaned",
            "Manufacturer": "PixelMed",
            "ManufacturerModelName": "DicomCleaner",
            "PurposeOfReferenceCodeSequence": [
              {
                "CodeMeaning": "De-identifying Equipment",
                "CodeValue": "109104",
                "CodingSchemeDesignator": "DCM"
              }
],
            "SoftwareVersions": "Tue Feb 12 18:07:17 EST 2019",
            "StationName": "PIERRJ03PC"
          }
],
        [
          {
            "ContributionDateTime": "20200312121517.257-0400",
            "ContributionDescription": "Cleaned",
            "Manufacturer": "PixelMed",
            "ManufacturerModelName": "DicomCleaner",
            "PurposeOfReferenceCodeSequence": [
              {
                "CodeMeaning": "De-identifying Equipment",
                "CodeValue": "109104",
                "CodingSchemeDesignator": "DCM"
              }
],
            "SoftwareVersions": "Tue Feb 12 18:07:17 EST 2019",
            "StationName": "PIERRJ03PC"
          }
],
        [
          {
            "ContributionDateTime": "20200312121517.268-0400",
            "ContributionDescription": "Cleaned",
            "Manufacturer": "PixelMed",
            "ManufacturerModelName": "DicomCleaner",
            "PurposeOfReferenceCodeSequence": [
              {
                "CodeMeaning": "De-identifying Equipment",
                "CodeValue": "109104",
                "CodingSchemeDesignator": "DCM"
              }
],
            "SoftwareVersions": "Tue Feb 12 18:07:17 EST 2019",
            "StationName": "PIERRJ03PC"
          }
],
        [
          {
            "ContributionDateTime": "20200312121517.277-0400",
            "ContributionDescription": "Cleaned",
            "Manufacturer": "PixelMed",
            "ManufacturerModelName": "DicomCleaner",
            "PurposeOfReferenceCodeSequence": [
              {
                "CodeMeaning": "De-identifying Equipment",
                "CodeValue": "109104",
                "CodingSchemeDesignator": "DCM"
              }
],
            "SoftwareVersions": "Tue Feb 12 18:07:17 EST 2019",
            "StationName": "PIERRJ03PC"
          }
],
        [
          {
            "ContributionDateTime": "20200312121517.287-0400",
            "ContributionDescription": "Cleaned",
            "Manufacturer": "PixelMed",
            "ManufacturerModelName": "DicomCleaner",
            "PurposeOfReferenceCodeSequence": [
              {
                "CodeMeaning": "De-identifying Equipment",
                "CodeValue": "109104",
                "CodingSchemeDesignator": "DCM"
              }
],
            "SoftwareVersions": "Tue Feb 12 18:07:17 EST 2019",
            "StationName": "PIERRJ03PC"
          }
],
        [
          {
            "ContributionDateTime": "20200312121517.296-0400",
            "ContributionDescription": "Cleaned",
            "Manufacturer": "PixelMed",
            "ManufacturerModelName": "DicomCleaner",
            "PurposeOfReferenceCodeSequence": [
              {
                "CodeMeaning": "De-identifying Equipment",
                "CodeValue": "109104",
                "CodingSchemeDesignator": "DCM"
              }
],
            "SoftwareVersions": "Tue Feb 12 18:07:17 EST 2019",
            "StationName": "PIERRJ03PC"
          }
],
        [
          {
            "ContributionDateTime": "20200312121517.306-0400",
            "ContributionDescription": "Cleaned",
            "Manufacturer": "PixelMed",
            "ManufacturerModelName": "DicomCleaner",
            "PurposeOfReferenceCodeSequence": [
              {
                "CodeMeaning": "De-identifying Equipment",
                "CodeValue": "109104",
                "CodingSchemeDesignator": "DCM"
              }
],
            "SoftwareVersions": "Tue Feb 12 18:07:17 EST 2019",
            "StationName": "PIERRJ03PC"
          }
],
        [
          {
            "ContributionDateTime": "20200312121517.316-0400",
            "ContributionDescription": "Cleaned",
            "Manufacturer": "PixelMed",
            "ManufacturerModelName": "DicomCleaner",
            "PurposeOfReferenceCodeSequence": [
              {
                "CodeMeaning": "De-identifying Equipment",
                "CodeValue": "109104",
                "CodingSchemeDesignator": "DCM"
              }
],
            "SoftwareVersions": "Tue Feb 12 18:07:17 EST 2019",
            "StationName": "PIERRJ03PC"
          }
],
        [
          {
            "ContributionDateTime": "20200312121517.329-0400",
            "ContributionDescription": "Cleaned",
            "Manufacturer": "PixelMed",
            "ManufacturerModelName": "DicomCleaner",
            "PurposeOfReferenceCodeSequence": [
              {
                "CodeMeaning": "De-identifying Equipment",
                "CodeValue": "109104",
                "CodingSchemeDesignator": "DCM"
              }
],
            "SoftwareVersions": "Tue Feb 12 18:07:17 EST 2019",
            "StationName": "PIERRJ03PC"
          }
],
        [
          {
            "ContributionDateTime": "20200312121517.340-0400",
            "ContributionDescription": "Cleaned",
            "Manufacturer": "PixelMed",
            "ManufacturerModelName": "DicomCleaner",
            "PurposeOfReferenceCodeSequence": [
              {
                "CodeMeaning": "De-identifying Equipment",
                "CodeValue": "109104",
                "CodingSchemeDesignator": "DCM"
              }
],
            "SoftwareVersions": "Tue Feb 12 18:07:17 EST 2019",
            "StationName": "PIERRJ03PC"
          }
],
        [
          {
            "ContributionDateTime": "20200312121517.350-0400",
            "ContributionDescription": "Cleaned",
            "Manufacturer": "PixelMed",
            "ManufacturerModelName": "DicomCleaner",
            "PurposeOfReferenceCodeSequence": [
              {
                "CodeMeaning": "De-identifying Equipment",
                "CodeValue": "109104",
                "CodingSchemeDesignator": "DCM"
              }
],
            "SoftwareVersions": "Tue Feb 12 18:07:17 EST 2019",
            "StationName": "PIERRJ03PC"
          }
],
        [
          {
            "ContributionDateTime": "20200312121517.360-0400",
            "ContributionDescription": "Cleaned",
            "Manufacturer": "PixelMed",
            "ManufacturerModelName": "DicomCleaner",
            "PurposeOfReferenceCodeSequence": [
              {
                "CodeMeaning": "De-identifying Equipment",
                "CodeValue": "109104",
                "CodingSchemeDesignator": "DCM"
              }
],
            "SoftwareVersions": "Tue Feb 12 18:07:17 EST 2019",
            "StationName": "PIERRJ03PC"
          }
],
        [
          {
            "ContributionDateTime": "20200312121517.369-0400",
            "ContributionDescription": "Cleaned",
            "Manufacturer": "PixelMed",
            "ManufacturerModelName": "DicomCleaner",
            "PurposeOfReferenceCodeSequence": [
              {
                "CodeMeaning": "De-identifying Equipment",
                "CodeValue": "109104",
                "CodingSchemeDesignator": "DCM"
              }
],
            "SoftwareVersions": "Tue Feb 12 18:07:17 EST 2019",
            "StationName": "PIERRJ03PC"
          }
],
        [
          {
            "ContributionDateTime": "20200312121517.378-0400",
            "ContributionDescription": "Cleaned",
            "Manufacturer": "PixelMed",
            "ManufacturerModelName": "DicomCleaner",
            "PurposeOfReferenceCodeSequence": [
              {
                "CodeMeaning": "De-identifying Equipment",
                "CodeValue": "109104",
                "CodingSchemeDesignator": "DCM"
              }
],
            "SoftwareVersions": "Tue Feb 12 18:07:17 EST 2019",
            "StationName": "PIERRJ03PC"
          }
],
        [
          {
            "ContributionDateTime": "20200312121517.389-0400",
            "ContributionDescription": "Cleaned",
            "Manufacturer": "PixelMed",
            "ManufacturerModelName": "DicomCleaner",
            "PurposeOfReferenceCodeSequence": [
              {
                "CodeMeaning": "De-identifying Equipment",
                "CodeValue": "109104",
                "CodingSchemeDesignator": "DCM"
              }
],
            "SoftwareVersions": "Tue Feb 12 18:07:17 EST 2019",
            "StationName": "PIERRJ03PC"
          }
],
        [
          {
            "ContributionDateTime": "20200312121517.399-0400",
            "ContributionDescription": "Cleaned",
            "Manufacturer": "PixelMed",
            "ManufacturerModelName": "DicomCleaner",
            "PurposeOfReferenceCodeSequence": [
              {
                "CodeMeaning": "De-identifying Equipment",
                "CodeValue": "109104",
                "CodingSchemeDesignator": "DCM"
              }
],
            "SoftwareVersions": "Tue Feb 12 18:07:17 EST 2019",
            "StationName": "PIERRJ03PC"
          }
],
        [
          {
            "ContributionDateTime": "20200312121517.408-0400",
            "ContributionDescription": "Cleaned",
            "Manufacturer": "PixelMed",
            "ManufacturerModelName": "DicomCleaner",
            "PurposeOfReferenceCodeSequence": [
              {
                "CodeMeaning": "De-identifying Equipment",
                "CodeValue": "109104",
                "CodingSchemeDesignator": "DCM"
              }
],
            "SoftwareVersions": "Tue Feb 12 18:07:17 EST 2019",
            "StationName": "PIERRJ03PC"
          }
],
        [
          {
            "ContributionDateTime": "20200312121517.418-0400",
            "ContributionDescription": "Cleaned",
            "Manufacturer": "PixelMed",
            "ManufacturerModelName": "DicomCleaner",
            "PurposeOfReferenceCodeSequence": [
              {
                "CodeMeaning": "De-identifying Equipment",
                "CodeValue": "109104",
                "CodingSchemeDesignator": "DCM"
              }
],
            "SoftwareVersions": "Tue Feb 12 18:07:17 EST 2019",
            "StationName": "PIERRJ03PC"
          }
],
        [
          {
            "ContributionDateTime": "20200312121517.430-0400",
            "ContributionDescription": "Cleaned",
            "Manufacturer": "PixelMed",
            "ManufacturerModelName": "DicomCleaner",
            "PurposeOfReferenceCodeSequence": [
              {
                "CodeMeaning": "De-identifying Equipment",
                "CodeValue": "109104",
                "CodingSchemeDesignator": "DCM"
              }
],
            "SoftwareVersions": "Tue Feb 12 18:07:17 EST 2019",
            "StationName": "PIERRJ03PC"
          }
],
        [
          {
            "ContributionDateTime": "20200312121517.440-0400",
            "ContributionDescription": "Cleaned",
            "Manufacturer": "PixelMed",
            "ManufacturerModelName": "DicomCleaner",
            "PurposeOfReferenceCodeSequence": [
              {
                "CodeMeaning": "De-identifying Equipment",
                "CodeValue": "109104",
                "CodingSchemeDesignator": "DCM"
              }
],
            "SoftwareVersions": "Tue Feb 12 18:07:17 EST 2019",
            "StationName": "PIERRJ03PC"
          }
],
        [
          {
            "ContributionDateTime": "20200312121517.450-0400",
            "ContributionDescription": "Cleaned",
            "Manufacturer": "PixelMed",
            "ManufacturerModelName": "DicomCleaner",
            "PurposeOfReferenceCodeSequence": [
              {
                "CodeMeaning": "De-identifying Equipment",
                "CodeValue": "109104",
                "CodingSchemeDesignator": "DCM"
              }
],
            "SoftwareVersions": "Tue Feb 12 18:07:17 EST 2019",
            "StationName": "PIERRJ03PC"
          }
],
        [
          {
            "ContributionDateTime": "20200312121517.458-0400",
            "ContributionDescription": "Cleaned",
            "Manufacturer": "PixelMed",
            "ManufacturerModelName": "DicomCleaner",
            "PurposeOfReferenceCodeSequence": [
              {
                "CodeMeaning": "De-identifying Equipment",
                "CodeValue": "109104",
                "CodingSchemeDesignator": "DCM"
              }
],
            "SoftwareVersions": "Tue Feb 12 18:07:17 EST 2019",
            "StationName": "PIERRJ03PC"
          }
]
],
      "ImagePositionPatient": [
        [-110.55416228442, -98.630937444478, -39.169850762023],
        [-110.70070817141, -98.912950383931, -36.186732704772],
        [-110.84725405841, -99.194963323384, -33.203614647521],
        [-110.99379946856, -99.476975309163, -30.22049659027],
        [-111.14034535556, -99.758988248616, -27.237378533019],
        [-111.28689124255, -100.04100118807, -24.254260475768],
        [-111.43343665271, -100.32301412752, -21.271142418517],
        [-111.5799825397, -100.60502706698, -18.288024599685],
