{
  "AcquisitionMatrixPE": 72,
  "AcquisitionNumber": 1,
  "AcquisitionTime": "19:28:8.532500",
  "BaseResolution": 72,
  "BodyPartExamined": "BRAIN",
  "CoilCombinationMethod": "Sum of Squares",
  "ConsistencyInfo": "N4_VE11C_LATEST_20160120",
  "ConversionSoftware": "dcm2niix",
  "ConversionSoftwareVersion": "v1.0.20220720",
  "DeviceSerialNumber": "45219",
  "DwellTime": 2.39e-05,
  "EchoNumber": 2,
  "EchoTime": 0.00738,
  "EchoTime1": 0.00492,
  "EchoTime2": 0.00738,
  "FlipAngle": 60,
  "HeudiconvVersion": "1.1.6",
  "ImageOrientationPatientDICOM": [0.999976, -0.00047482, -0.00696492, -1.3913e-11, 0.997684, -0.0680151],
  "ImageOrientationText": "Tra>Cor(-3.9)>Sag(-0.4)",
  "ImageType": [
    "ORIGINAL",
    "PRIMARY",
    "P",
    "ND",
    "PHASE"
],
  "ImagingFrequency": 123.182,
  "InPlanePhaseEncodingDirectionDICOM": "ROW",
  "InstitutionAddress": "First Avenue 660,New York,NYC,US,10016",
  "InstitutionName": "NYU LANGONE CBI",
  "InstitutionalDepartmentName": "Department",
  "MRAcquisitionType": "2D",
  "MagneticFieldStrength": 3,
  "Manufacturer": "Siemens",
  "ManufacturersModelName": "Skyra",
  "MatrixCoilMode": "SENSE",
  "Modality": "MR",
  "NonlinearGradientCorrection": false,
  "PartialFourier": 1,
  "PatientPosition": "HFS",
  "PercentPhaseFOV": 100,
  "PercentSampling": 100,
  "PhaseEncodingDirection": "i",
  "PhaseEncodingSteps": 72,
  "PhaseResolution": 1,
  "PixelBandwidth": 290,
  "ProcedureStepDescription": "MRI BRAIN WITHOUT IV CONTRAST",
  "ProtocolName": "gre_fm_bold",
  "PulseSequenceDetails": "%SiemensSeq%\\gre_field_mapping",
  "ReceiveCoilActiveElements": "HE1-4",
  "ReceiveCoilName": "HeadNeck_20",
  "ReconMatrixPE": 72,
  "RepetitionTime": 0.444,
  "SAR": 0.145189,
  "ScanningSequence": "GR",
  "SequenceName": "*fm2d2r",
  "SequenceVariant": "SP",
  "SeriesDescription": "gre_fm_bold",
  "SeriesNumber": 5,
  "ShimSetting": [-874, -6971, 5003, 301, -166, -308, 381, -114],
  "SliceThickness": 3,
  "SliceTiming": [0.21875, 0, 0.23438, 0.01562, 0.25, 0.01562, 0.25, 0.03125, 0.26562, 0.04688, 0.28125, 0.0625, 0.29688, 0.0625, 0.29688, 0.07812, 0.3125, 0.09375, 0.32812, 0.10938, 0.34375, 0.10938, 0.34375, 0.125, 0.35938, 0.14062, 0.375, 0.15625, 0.39062, 0.15625, 0.39062, 0.17188, 0.40625, 0.1875, 0.42188, 0.20312, 0.4375, 0.20312],
  "SoftwareVersions": "syngo MR E11",
  "SpacingBetweenSlices": 3,
  "StationName": "MRC45219",
  "TxRefAmp": 446.594,
  "dcmmeta_affine": [
    [-2.999926805496216, -4.1739001144236454e-11, -0.020943254232406616, 108.38497161865234],
    [0.0014244591584429145, 2.9930529594421387, -0.20404052734375, -102.22074127197266],
    [-0.020894773304462433, 0.204045370221138, 2.99298095703125, -62.03507614135742],
    [0.0, 0.0, 0.0, 1.0]
],
  "dcmmeta_reorient_transform": [
    [0.0, -1.0, 0.0, 71.0],
    [1.0, 0.0, 0.0, 0.0],
    [0.0, 0.0, -1.0, 37.0],
    [0.0, 0.0, 0.0, 1.0]
],
  "dcmmeta_shape": [72, 72, 38],
  "dcmmeta_slice_dim": 2,
  "dcmmeta_version": 0.6,
  "global": {
    "const": {
      "AccessionNumber": "123344233",
      "AcquisitionMatrix": [0, 72, 72, 0],
      "AcquisitionNumber": 1,
      "AngioFlag": "N",
      "BitsAllocated": 16,
      "BitsStored": 12,
      "BodyPartExamined": "BRAIN",
      "Columns": 72,
      "CountryOfResidence": "United States of America [1]",
      "EchoNumbers": 2,
      "EchoTime": 7.38,
      "EchoTrainLength": 0,
      "FlipAngle": 60.0,
      "HighBit": 11,
      "ImageOrientationPatient": [0.9999756318911, -0.0004748197111, -0.0069649242816, -1.3913e-11, 0.99768429027861, -0.0680151228131],
      "ImageType": [
        "ORIGINAL",
        "PRIMARY",
        "P",
        "ND"
],
      "ImagedNucleus": "1H",
      "ImagingFrequency": 123.182088,
      "InPlanePhaseEncodingDirection": "ROW",
      "MRAcquisitionType": "2D",
      "MagneticFieldStrength": 3.0,
      "Manufacturer": "SIEMENS",
      "ManufacturerModelName": "Skyra",
      "Modality": "MR",
      "NumberOfAverages": 1.0,
      "NumberOfPhaseEncodingSteps": 72,
      "PercentPhaseFieldOfView": 100.0,
      "PercentSampling": 100.0,
      "PerformedProcedureStepStartTime": "191717.650000",
      "PhotometricInterpretation": "MONOCHROME2",
      "PixelBandwidth": 290.0,
      "PixelRepresentation": 0,
      "PixelSpacing": [3.0, 3.0],
      "PregnancyStatus": 4,
      "ProcedureCodeSequence": [
        {
          "CodeMeaning": "MRI BRAIN WITHOUT IV CONTRAST",
          "CodeValue": "IMG269",
          "CodingSchemeDesignator": "L"
        }
],
      "ProtocolName": "gre_fm_bold",
      "RepetitionTime": 444.0,
      "RequestAttributesSequence": [
        {
          "RequestedProcedureID": "125739972",
          "ScheduledProcedureStepDescription": "MRI BRAIN WITHOUT IV CONTRAST",
          "ScheduledProcedureStepID": "E9534232",
          "ScheduledProtocolCodeSequence": [
            {
              "CodeMeaning": "MRI BRAIN WITHOUT IV CONTRAST",
              "CodeValue": "651061",
              "CodingSchemeDesignator": "L"
            }
]
        }
],
      "RequestedProcedureCodeSequence": [
        {
          "CodeMeaning": "MRI BRAIN WITHOUT IV CONTRAST",
          "CodeValue": "IMG269",
          "CodingSchemeDesignator": "L"
        }
],
      "RescaleIntercept": -4096.0,
      "RescaleSlope": 2.0,
      "RescaleType": "US",
      "Rows": 72,
      "SAR": 0.14518931860462,
      "SamplesPerPixel": 1,
      "ScanningSequence": "GR",
      "SequenceName": "*fm2d2r",
      "SequenceVariant": "SP",
      "SeriesDescription": "gre_fm_bold",
      "SeriesNumber": 5,
      "SeriesTime": "192912.397000",
      "SliceThickness": 3.0,
      "SmokingStatus": "UNKNOWN",
      "SoftwareVersions": "syngo MR E11",
      "SpacingBetweenSlices": 3.0,
      "SpecificCharacterSet": "ISO_IR 100",
      "StudyID": "CM",
      "StudyTime": "191717.501000",
      "TransmitCoilName": "Body",
      "VariableFlipAngleFlag": "N",
      "WindowCenterWidthExplanation": "Algo1",
      "dBdt": 0.0},
    "slices": {
      "AcquisitionTime": ["192808.532500", "192808.310000", "192808.545000", "192808.322500", "192808.557500", "192808.335000", "192808.567500", "192808.345000", "192808.580000", "192808.357500", "192808.592500", "192808.370000", "192808.602500", "192808.380000", "192808.615000", "192808.392500", "192808.627500", "192808.405000", "192808.637500", "192808.415000", "192808.650000", "192808.427500", "192808.662500", "192808.440000", "192808.672500", "192808.450000", "192808.685000", "192808.462500", "192808.697500", "192808.475000", "192808.707500", "192808.485000", "192808.720000", "192808.497500", "192808.732500", "192808.510000", "192808.742500", "192808.520000"],
      "ContentTime": ["192912.446000", "192912.399000", "192912.448000", "192912.403000", "192912.450000", "192912.407000", "192912.453000", "192912.410000", "192912.455000", "192912.412000", "192912.457000", "192912.414000", "192912.460000", "192912.417000", "192912.462000", "192912.419000", "192912.464000", "192912.421000", "192912.466000", "192912.423000", "192912.468000", "192912.425000", "192912.470000", "192912.427000", "192912.473000", "192912.429000", "192912.475000", "192912.431000", "192912.477000", "192912.434000", "192912.479000", "192912.436000", "192912.481000", "192912.438000", "192912.484000", "192912.441000", "192912.491000", "192912.443000"],
      "CsaImage.ICE_Dims": [
        "X_2_1_1_1_1_1_20_1_1_1_1_4275",
        "X_2_1_1_1_1_1_1_1_1_2_1_4275",
        "X_2_1_1_1_1_1_21_1_1_3_1_4275",
        "X_2_1_1_1_1_1_2_1_1_4_1_4275",
        "X_2_1_1_1_1_1_22_1_1_5_1_4275",
        "X_2_1_1_1_1_1_3_1_1_6_1_4275",
        "X_2_1_1_1_1_1_23_1_1_7_1_4275",
        "X_2_1_1_1_1_1_4_1_1_8_1_4275",
        "X_2_1_1_1_1_1_24_1_1_9_1_4275",
        "X_2_1_1_1_1_1_5_1_1_10_1_4275",
        "X_2_1_1_1_1_1_25_1_1_11_1_4275",
        "X_2_1_1_1_1_1_6_1_1_12_1_4275",
        "X_2_1_1_1_1_1_26_1_1_13_1_4275",
        "X_2_1_1_1_1_1_7_1_1_14_1_4275",
        "X_2_1_1_1_1_1_27_1_1_15_1_4275",
        "X_2_1_1_1_1_1_8_1_1_16_1_4275",
        "X_2_1_1_1_1_1_28_1_1_17_1_4275",
        "X_2_1_1_1_1_1_9_1_1_18_1_4275",
        "X_2_1_1_1_1_1_29_1_1_19_1_4275",
        "X_2_1_1_1_1_1_10_1_1_20_1_4275",
        "X_2_1_1_1_1_1_30_1_1_21_1_4275",
        "X_2_1_1_1_1_1_11_1_1_22_1_4275",
        "X_2_1_1_1_1_1_31_1_1_23_1_4275",
        "X_2_1_1_1_1_1_12_1_1_24_1_4275",
        "X_2_1_1_1_1_1_32_1_1_25_1_4275",
        "X_2_1_1_1_1_1_13_1_1_26_1_4275",
        "X_2_1_1_1_1_1_33_1_1_27_1_4275",
        "X_2_1_1_1_1_1_14_1_1_28_1_4275",
        "X_2_1_1_1_1_1_34_1_1_29_1_4275",
        "X_2_1_1_1_1_1_15_1_1_30_1_4275",
        "X_2_1_1_1_1_1_35_1_1_31_1_4275",
        "X_2_1_1_1_1_1_16_1_1_32_1_4275",
        "X_2_1_1_1_1_1_36_1_1_33_1_4275",
        "X_2_1_1_1_1_1_17_1_1_34_1_4275",
        "X_2_1_1_1_1_1_37_1_1_35_1_4275",
        "X_2_1_1_1_1_1_18_1_1_36_1_4275",
        "X_2_1_1_1_1_1_38_1_1_37_1_4275",
        "X_2_1_1_1_1_1_19_1_1_38_1_4275"
],
      "CsaImage.ProtocolSliceNumber": [0, 1, 2, 3, 4, 5, 6, 7, 8, 9, 10, 11, 12, 13, 14, 15, 16, 17, 18, 19, 20, 21, 22, 23, 24, 25, 26, 27, 28, 29, 30, 31, 32, 33, 34, 35, 36, 37],
      "CsaImage.SliceMeasurementDuration": [63047.5, 63050.0, 63047.5, 63047.5, 63047.5, 63047.5, 63047.5, 63050.0, 63047.5, 63047.5, 63047.5, 63047.5, 63047.5, 63050.0, 63047.5, 63047.5, 63047.5, 63047.5, 63047.5, 63050.0, 63047.5, 63047.5, 63047.5, 63047.5, 63047.5, 63050.0, 63047.5, 63047.5, 63047.5, 63047.5, 63047.5, 63050.0, 63047.5, 63047.5, 63047.5, 63047.5, 63047.5, 63050.0],
      "CsaImage.SlicePosition_PCS": [
        [-108.38497516, -110.28600681, -47.54781531],
        [-108.36403191, -110.08196652, -44.55483436],
        [-108.34308862, -109.87792623, -41.56185721],
        [-108.32214534, -109.6738857, -38.56887626],
        [-108.30120209, -109.46984541, -35.5758953],
        [-108.2802588, -109.265805, -32.58291434],
        [-108.25931555, -109.0617646, -29.5899372],
        [-108.23837228, -108.85772419, -26.59695624],
        [-108.21742899, -108.65368378, -23.60397529],
        [-108.19648572, -108.44964343, -20.61099624],
        [-108.17554246, -108.24560302, -17.61801528],
        [-108.15459919, -108.04156262, -14.62503623],
        [-108.13365592, -107.83752224, -11.63205527],
        [-108.11271265, -107.63348185, -8.63907622],
        [-108.09176938, -107.42944145, -5.64609622],
        [-108.07082611, -107.22540107, -2.65311622],
        [-108.04988284, -107.02136069, 0.33986331],
        [-108.02893957, -106.81732029, 3.33284331],
        [-108.0079963, -106.61327994, 6.32582343],
        [-107.98705302, -106.40923953, 9.31880332],
        [-107.96610976, -106.20519912, 12.31178332],
        [-107.94516648, -106.00115871, 15.30476333],
        [-107.92422321, -105.7971183, 18.29774285],
        [-107.90327994, -105.59307802, 21.29072286],
        [-107.88233667, -105.38903749, 24.28370286],
        [-107.8613934, -105.1849972, 27.27668382],
        [-107.84045013, -104.98095667, 30.26966287],
        [-107.81950687, -104.77691638, 33.26264192],
        [-107.7985636, -104.57287609, 36.25562287],
        [-107.77762033, -104.36883557, 39.24860192],
        [-107.75667704, -104.16479528, 42.24158288],
        [-107.73573377, -103.96075475, 45.23456384],
        [-107.71479052, -103.75671446, 48.22754098],
        [-107.69384724, -103.55267393, 51.22052194],
        [-107.67290398, -103.34863388, 54.21350289],
        [-107.6519607, -103.14459336, 57.20648385],
        [-107.63101741, -102.94055283, 60.19946099],
        [-107.61007416, -102.7365123, 63.19244195]
],
      "CsaImage.TimeAfterStart": [0.6675, 0.4475, 0.68, 0.4575, 0.6925, 0.47, 0.7025, 0.4825, 0.715, 0.4925, 0.7275, 0.505, 0.7375, 0.5175, 0.75, 0.5275, 0.7625, 0.54, 0.7725, 0.5525, 0.785, 0.5625, 0.7975, 0.575, 0.8075, 0.5875, 0.82, 0.5975, 0.8325, 0.61, 0.8425, 0.6225, 0.855, 0.6325, 0.8675, 0.645, 0.8775, 0.6575],
      "ImagePositionPatient": [
        [-108.38497516155, -110.28600680681, -47.547815314171],
        [-108.36403190732, -110.08196651788, -44.55483435714],
        [-108.34308862328, -109.87792622896, -41.561857214806],
        [-108.32214533925, -109.67388570162, -38.568876257775],
        [-108.30120208501, -109.46984541269, -35.575895300744],
        [-108.28025880098, -109.26580500456, -32.582914343712],
        [-108.25931554675, -109.06176459642, -29.589937201378],
        [-108.23837227761, -108.85772418829, -26.596956244347],
        [-108.21742899358, -108.65368378015, -23.603975287316],
        [-108.19648572444, -108.44964343162, -20.610996237633],
        [-108.17554245531, -108.24560302349, -17.618015280602],
        [-108.15459918618, -108.04156261535, -14.625036230919],
        [-108.13365591704, -107.83752223702, -11.632055273888],
        [-108.11271264791, -107.63348185124, -8.6390762242056],
        [-108.09176937878, -107.42944145056, -5.6460962208487],
        [-108.07082610964, -107.22540107222, -2.6531162174918],
        [-108.04988283678, -107.02136069389, 0.33986330902801],
        [-108.02893956765, -106.81732028576, 3.3328433123849],
        [-108.00799629572, -106.61327993723, 6.3258234349512],
        [-107.98705302473, -106.40923952909, 9.3188033190988],
        [-107.96610975652, -106.20519912096, 12.311783322456],
        [-107.94516648367, -106.00115871282, 15.304763325813],
        [-107.92422321081, -105.79711830469, 18.297742852332],
        [-107.90327994167, -105.59307801576, 21.290722855689],
        [-107.88233667254, -105.38903748842, 24.283702859046],
        [-107.86139340341, -105.1849971995, 27.276683816078],
        [-107.84045013427, -104.98095667215, 30.26966286576],
        [-107.81950686514, -104.77691638323, 33.262641915443],
        [-107.79856359601, -104.5728760943, 36.255622872474],
        [-107.77762032687, -104.36883556696, 39.248601922157],
        [-107.75667704284, -104.16479527803, 42.241582879188],
        [-107.7357337737, -103.96075475069, 45.234563836219],
        [-107.71479051947, -103.75671446176, 48.227540978553],
        [-107.69384723544, -103.55267393442, 51.220521935584],
        [-107.6729039812, -103.34863388391, 54.213502892616],
        [-107.65196069717, -103.14459335657, 57.206483849647],
        [-107.63101741313, -102.94055282923, 60.199460991981],
        [-107.6100741589, -102.73651230188, 63.192441949012]
],
      "InstanceCreationTime": ["192912.446000", "192912.399000", "192912.448000", "192912.403000", "192912.450000", "192912.407000", "192912.453000", "192912.410000", "192912.455000", "192912.412000", "192912.457000", "192912.414000", "192912.460000", "192912.417000", "192912.462000", "192912.419000", "192912.464000", "192912.421000", "192912.466000", "192912.423000", "192912.468000", "192912.425000", "192912.470000", "192912.427000", "192912.473000", "192912.429000", "192912.475000", "192912.431000", "192912.477000", "192912.434000", "192912.479000", "192912.436000", "192912.481000", "192912.438000", "192912.484000", "192912.441000", "192912.491000", "192912.443000"],
      "InstanceNumber": [1, 2, 3, 4, 5, 6, 7, 8, 9, 10, 11, 12, 13, 14, 15, 16, 17, 18, 19, 20, 21, 22, 23, 24, 25, 26, 27, 28, 29, 30, 31, 32, 33, 34, 35, 36, 37, 38],
      "LargestImagePixelValue": [4094, 4086, 4094, 4083, 4093, 4094, 4081, 4086, 4095, 4086, 4089, 4084, 4081, 4082, 4081, 4091, 4094, 4081, 4093, 4090, 4057, 4080, 4077, 4055, 4074, 4092, 4094, 4093, 4090, 4092, 4092, 4093, 4095, 4092, 4095, 4095, 4094, 4094],
      "SliceLocation": [-55.694131234363, -52.694130222937, -49.694133017074, -46.694131989225, -43.6941309778, -40.694129958058, -37.694132744296, -34.694131724658, -31.694130704917, -28.694131592219, -25.694130572581, -22.694131455829, -19.694130438219, -16.694131322987, -13.694131255299, -10.694131189132, -7.6941315986591, -4.6941315304644, -1.6941313473738, 1.3058686019035, 4.3058686700917, 7.3058687383124, 10.305868330812, 13.305868390899, 16.305868467201, 19.305869478731, 22.305868603591, 25.305867712235, 28.305868723764, 31.305867848624, 34.305868860258, 37.305869888003, 40.305867093658, 43.305868121507, 46.305869116717, 49.305870144566, 52.305867366644, 55.305868394286],
      "SmallestImagePixelValue": [0, 1, 1, 3, 1, 1, 2, 3, 0, 4, 10, 16, 0, 2, 4, 45, 0, 8, 38, 1, 7, 29, 18, 9, 2, 20, 4, 19, 0, 10, 6, 1, 4, 0, 0, 1, 0, 2],
      "WindowCenter": [-48.0, -164.0, -154.0, -186.0, -228.0, -196.0, -212.0, -294.0, -318.0, -350.0, -300.0, -254.0, -242.0, -358.0, -336.0, -270.0, -248.0, -122.0, -256.0, -268.0, -270.0, -278.0, -254.0, -260.0, -124.0, -58.0, -102.0, -302.0, -146.0, -122.0, -154.0, -188.0, -204.0, -224.0, -278.0, -242.0, -168.0, -146.0],
      "WindowWidth": [6208.0, 6096.0, 6014.0, 5880.0, 5790.0, 5692.0, 5642.0, 5604.0, 5706.0, 5570.0, 5646.0, 5554.0, 5328.0, 4546.0, 4536.0, 4504.0, 4500.0, 4952.0, 4538.0, 4540.0, 4564.0, 4564.0, 4552.0, 4556.0, 4956.0, 5306.0, 5140.0, 4670.0, 5316.0, 5566.0, 5598.0, 5718.0, 5824.0, 5958.0, 6042.0, 6198.0, 6380.0, 6436.0]
    }
  }
}