{
  "AcquisitionMatrixPE": 72,
  "AcquisitionNumber": 1,
  "AcquisitionTime": "16:11:9.460000",
  "BandwidthPerPixelPhaseEncode": 24.366,
  "BaseResolution": 72,
  "BodyPartExamined": "BRAIN",
  "CoilCombinationMethod": "Sum of Squares",
  "ConsistencyInfo": "N4_VE11C_LATEST_20160120",
  "ConversionSoftware": "dcm2niix",
  "ConversionSoftwareVersion": "v1.0.20220720",
  "DerivedVendorReportedEchoSpacing": 0.000570011,
  "DeviceSerialNumber": "45219",
  "DwellTime": 3.5e-06,
  "EchoTime": 0.03,
  "EchoTrainLength": 72,
  "EffectiveEchoSpacing": 0.000570011,
  "FlipAngle": 80,
  "HeudiconvVersion": "1.1.6",
  "ImageComments": "Reference volume for motion correction.",
  "ImageOrientationPatientDICOM": [1, 0, 0, 0, 0.999701, 0.0244322],
  "ImageOrientationText": "Tra>Cor(1.4)",
  "ImageType": [
    "ORIGINAL",
    "PRIMARY",
    "M",
    "ND",
    "NORM",
    "MOCO",
    "MOSAIC"
],
  "ImagingFrequency": 123.182,
  "InPlanePhaseEncodingDirectionDICOM": "COL",
  "InstitutionAddress": "First Avenue 660,New York,NYC,US,10016",
  "InstitutionName": "NYU LANGONE CBI",
  "InstitutionalDepartmentName": "Department",
  "MRAcquisitionType": "2D",
  "MagneticFieldStrength": 3,
  "Manufacturer": "Siemens",
  "ManufacturersModelName": "Skyra",
  "MatrixCoilMode": "SENSE",
  "Modality": "MR",
  "NonlinearGradientCorrection": false,
  "PartialFourier": 1,
  "PatientPosition": "HFS",
  "PercentPhaseFOV": 100,
  "PercentSampling": 100,
  "PhaseEncodingDirection": "j-",
  "PhaseEncodingSteps": 72,
  "PhaseResolution": 1,
  "PixelBandwidth": 1985,
  "ProcedureStepDescription": "MRI BRAIN WITHOUT IV CONTRAST",
  "ProtocolName": "TASK_AB_MoCo",
  "PulseSequenceDetails": "%SiemensSeq%\\ep2d_bold",
  "ReceiveCoilActiveElements": "HE1-4",
  "ReceiveCoilName": "HeadNeck_20",
  "ReconMatrixPE": 72,
  "RepetitionTime": 2.5,
  "SAR": 0.112969,
  "ScanOptions": "FS",
  "ScanningSequence": "EP",
  "SequenceName": "*epfid2d1_72",
  "SequenceVariant": "SK",
  "SeriesDescription": "MoCoSeries",
  "SeriesNumber": 6,
  "ShimSetting": [-902, -6973, 5029, 263, -174, -367, 275, -103],
  "SliceThickness": 3,
  "SliceTiming": [1.24, 0, 1.3075, 0.0675, 1.3725, 0.1325, 1.4375, 0.1975, 1.5025, 0.2625, 1.5675, 0.3275, 1.6325, 0.3925, 1.6975, 0.4575, 1.7625, 0.5225, 1.8275, 0.5875, 1.8925, 0.655, 1.96, 0.72, 2.025, 0.785, 2.09, 0.85, 2.155, 0.915, 2.22, 0.98, 2.285, 1.045, 2.35, 1.11, 2.415, 1.175],
  "SoftwareVersions": "syngo MR E11",
  "SpacingBetweenSlices": 3,
  "StationName": "MRC45219",
  "TaskName": "ab",
  "TotalReadoutTime": 0.0404708,
  "TxRefAmp": 423.464,
  "dcmmeta_affine": [
    [-3.0, 0.0, 0.0, 108.0],
    [0.0, 2.9991044998168945, 0.07329653203487396, -110.83683776855469],
    [0.0, -0.07329653203487396, 2.9991044998168945, -48.27790832519531],
    [0.0, 0.0, 0.0, 1.0]
],
  "dcmmeta_reorient_transform": [
    [0.0, -1.0, 0.0, 71.0],
    [1.0, 0.0, 0.0, 0.0],
    [0.0, 0.0, 1.0, 0.0],
    [0.0, 0.0, 0.0, 1.0]
],
  "dcmmeta_shape": [72, 72, 38, 132],
  "dcmmeta_slice_dim": 2,
  "dcmmeta_version": 0.6,
  "global": {
    "const": {
      "AcquisitionMatrix": [72, 0, 0, 72],
      "AngioFlag": "N",
      "BitsAllocated": 16,
      "BitsStored": 12,
      "BodyPartExamined": "BRAIN",
      "Columns": 504,
      "CountryOfResidence": "United States of America [1]",
      "EchoNumbers": 1,
      "EchoTime": 30.0,
      "EchoTrainLength": 72,
      "FlipAngle": 80.0,
      "HighBit": 11,
      "ImageOrientationPatient": [1.0, 0.0, 0.0, 0.0, 0.99970148981559, 0.02443217674489],
      "ImagePositionPatient": [-756.0, -749.90614125725, -69.314014040768],
      "ImageType": [
        "ORIGINAL",
        "PRIMARY",
        "M",
        "ND",
        "NORM",
        "MOCO",
        "MOSAIC"
],
      "ImagedNucleus": "1H",
      "ImagingFrequency": 123.181919,
      "InPlanePhaseEncodingDirection": "COL",
      "MRAcquisitionType": "2D",
      "MagneticFieldStrength": 3.0,
      "Manufacturer": "SIEMENS",
      "ManufacturerModelName": "Skyra",
      "Modality": "MR",
      "NumberOfAverages": 1.0,
      "NumberOfPhaseEncodingSteps": 72,
      "PercentPhaseFieldOfView": 100.0,
      "PercentSampling": 100.0,
      "PerformedProcedureStepStartTime": "160557.472000",
      "PhotometricInterpretation": "MONOCHROME2",
      "PixelBandwidth": 1985.0,
      "PixelRepresentation": 0,
      "PixelSpacing": [3.0, 3.0],
      "PregnancyStatus": 4,
      "ProcedureCodeSequence": [
        {
          "CodeMeaning": "MRI BRAIN WITHOUT IV CONTRAST",
          "CodeValue": "IMG269",
          "CodingSchemeDesignator": "L"
        }
],
      "ProtocolName": "TASK_AB",
      "RepetitionTime": 2500.0,
      "RequestAttributesSequence": [
        {
          "RequestedProcedureID": "125739968",
          "ScheduledProcedureStepDescription": "MRI BRAIN WITHOUT IV CONTRAST",
          "ScheduledProcedureStepID": "E9173253",
          "ScheduledProtocolCodeSequence": [
            {
              "CodeMeaning": "MRI BRAIN WITHOUT IV CONTRAST",
              "CodeValue": "651061",
              "CodingSchemeDesignator": "L"
            }
]
        }
],
      "RequestedProcedureCodeSequence": [
        {
          "CodeMeaning": "MRI BRAIN WITHOUT IV CONTRAST",
          "CodeValue": "IMG269",
          "CodingSchemeDesignator": "L"
        }
],
      "Rows": 504,
      "SAR": 0.11296905913876,
      "SamplesPerPixel": 1,
      "ScanOptions": "FS",
      "ScanningSequence": "EP",
      "SequenceName": "*epfid2d1_72",
      "SequenceVariant": "SK",
      "SeriesDescription": "MoCoSeries",
      "SeriesNumber": 6,
      "SeriesTime": "161211.003000",
      "SliceLocation": -50.971483716378,
      "SliceThickness": 3.0,
      "SmallestImagePixelValue": 0,
      "SmokingStatus": "UNKNOWN",
      "SoftwareVersions": "syngo MR E11",
      "SpacingBetweenSlices": 3.000000004687,
      "SpecificCharacterSet": "ISO_IR 100",
      "StudyID": "125739968",
      "StudyTime": "160557.311000",
      "TransmitCoilName": "Body",
      "VariableFlipAngleFlag": "N",
      "WindowCenterWidthExplanation": "Algo1",
      "dBdt": 0.0},
    "slices": {}
  },
  "time": {
    "samples": {
      "AcquisitionNumber": [1, 2, 3, 4, 5, 6, 7, 8, 9, 10, 11, 12, 13, 14, 15, 16, 17, 18, 19, 20, 21, 22, 23, 24, 25, 26, 27, 28, 29, 30, 31, 32, 33, 34, 35, 36, 37, 38, 39, 40, 41, 42, 43, 44, 45, 46, 47, 48, 49, 50, 51, 52, 53, 54, 55, 56, 57, 58, 59, 60, 61, 62, 63, 64, 65, 66, 67, 68, 69, 70, 71, 72, 73, 74, 75, 76, 77, 78, 79, 80, 81, 82, 83, 84, 85, 86, 87, 88, 89, 90, 91, 92, 93, 94, 95, 96, 97, 98, 99, 100, 101, 102, 103, 104, 105, 106, 107, 108, 109, 110, 111, 112, 113, 114, 115, 116, 117, 118, 119, 120, 121, 122, 123, 124, 125, 126, 127, 128, 129, 130, 131, 132],
      "AcquisitionTime": ["161109.460000", "161111.960000", "161114.460000", "161116.960000", "161119.460000", "161121.960000", "161124.460000", "161126.960000", "161129.460000", "161131.960000", "161134.460000", "161136.960000", "161139.460000", "161141.960000", "161144.460000", "161146.960000", "161149.460000", "161151.960000", "161154.460000", "161156.960000", "161159.460000", "161201.960000", "161204.460000", "161206.960000", "161209.460000", "161211.960000", "161214.460000", "161216.960000", "161219.460000", "161221.960000", "161224.460000", "161226.960000", "161229.460000", "161231.960000", "161234.460000", "161236.960000", "161239.460000", "161241.960000", "161244.460000", "161246.960000", "161249.460000", "161251.960000", "161254.460000", "161256.960000", "161259.460000", "161301.960000", "161304.460000", "161306.960000", "161309.460000", "161311.960000", "161314.460000", "161316.960000", "161319.460000", "161321.960000", "161324.460000", "161326.960000", "161329.460000", "161331.960000", "161334.460000", "161336.960000", "161339.460000", "161341.960000", "161344.460000", "161346.960000", "161349.460000", "161351.960000", "161354.460000", "161356.960000", "161359.460000", "161401.960000", "161404.460000", "161406.960000", "161409.460000", "161411.960000", "161414.460000", "161416.960000", "161419.460000", "161421.960000", "161424.460000", "161426.960000", "161429.460000", "161431.960000", "161434.460000", "161436.960000", "161439.460000", "161441.960000", "161444.460000", "161446.960000", "161449.460000", "161451.960000", "161454.460000", "161456.960000", "161459.460000", "161501.960000", "161504.460000", "161506.960000", "161509.460000", "161511.960000", "161514.460000", "161516.960000", "161519.460000", "161521.960000", "161524.460000", "161526.960000", "161529.460000", "161531.960000", "161534.460000", "161536.960000", "161539.460000", "161541.960000", "161544.460000", "161546.960000", "161549.460000", "161551.960000", "161554.460000", "161556.960000", "161559.460000", "161601.960000", "161604.460000", "161606.960000", "161609.460000", "161611.960000", "161614.460000", "161616.960000", "161619.460000", "161621.960000", "161624.460000", "161626.960000", "161629.460000", "161631.960000", "161634.460000", "161636.960000"],
      "ContentTime": ["161211.005000", "161211.008000", "161211.011000", "161211.014000", "161211.017000", "161211.019000", "161211.022000", "161211.025000", "161211.027000", "161211.030000", "161211.033000", "161211.036000", "161211.038000", "161211.041000", "161211.044000", "161211.046000", "161211.049000", "161211.052000", "161211.055000", "161211.057000", "161211.060000", "161211.063000", "161211.065000", "161211.068000", "161310.607000", "161310.610000", "161310.612000", "161310.615000", "161310.618000", "161310.620000", "161310.623000", "161310.626000", "161310.629000", "161310.631000", "161310.634000", "161310.637000", "161310.645000", "161310.648000", "161310.651000", "161310.653000", "161310.656000", "161310.659000", "161310.662000", "161310.664000", "161310.667000", "161310.670000", "161310.672000", "161310.675000", "161410.600000", "161410.603000", "161410.605000", "161410.608000", "161410.611000", "161410.613000", "161410.616000", "161410.619000", "161410.622000", "161410.624000", "161410.627000", "161410.630000", "161410.633000", "161410.635000", "161410.638000", "161410.641000", "161410.643000", "161410.646000", "161410.649000", "161410.651000", "161410.654000", "161410.657000", "161410.659000", "161410.662000", "161510.605000", "161510.608000", "161510.611000", "161510.613000", "161510.616000", "161510.619000", "161510.621000", "161510.624000", "161510.627000", "161510.630000", "161510.632000", "161510.635000", "161510.638000", "161510.641000", "161510.644000", "161510.646000", "161510.649000", "161510.652000", "161510.654000", "161510.657000", "161510.660000", "161510.662000", "161510.665000", "161510.668000", "161550.587000", "161550.590000", "161550.592000", "161550.595000", "161550.598000", "161550.601000", "161550.603000", "161550.606000", "161550.609000", "161550.611000", "161550.614000", "161550.617000", "161550.620000", "161550.623000", "161550.625000", "161550.628000", "161638.874000", "161638.877000", "161638.881000", "161638.884000", "161638.888000", "161638.890000", "161638.893000", "161638.897000", "161638.905000", "161638.908000", "161638.911000", "161638.914000", "161638.917000", "161638.919000", "161638.922000", "161638.925000", "161638.928000", "161638.931000", "161638.934000", "161638.938000"],
      "InstanceCreationTime": ["161211.005000", "161211.008000", "161211.011000", "161211.014000", "161211.017000", "161211.019000", "161211.022000", "161211.025000", "161211.027000", "161211.030000", "161211.033000", "161211.036000", "161211.038000", "161211.041000", "161211.044000", "161211.046000", "161211.049000", "161211.052000", "161211.055000", "161211.057000", "161211.060000", "161211.063000", "161211.065000", "161211.068000", "161310.607000", "161310.610000", "161310.612000", "161310.615000", "161310.618000", "161310.620000", "161310.623000", "161310.626000", "161310.629000", "161310.631000", "161310.634000", "161310.637000", "161310.645000", "161310.648000", "161310.651000", "161310.653000", "161310.656000", "161310.659000", "161310.662000", "161310.664000", "161310.667000", "161310.670000", "161310.672000", "161310.675000", "161410.600000", "161410.603000", "161410.605000", "161410.608000", "161410.611000", "161410.613000", "161410.616000", "161410.619000", "161410.622000", "161410.624000", "161410.627000", "161410.630000", "161410.633000", "161410.635000", "161410.638000", "161410.641000", "161410.643000", "161410.646000", "161410.649000", "161410.651000", "161410.654000", "161410.657000", "161410.659000", "161410.662000", "161510.605000", "161510.608000", "161510.611000", "161510.613000", "161510.616000", "161510.619000", "161510.621000", "161510.624000", "161510.627000", "161510.630000", "161510.632000", "161510.635000", "161510.638000", "161510.641000", "161510.644000", "161510.646000", "161510.649000", "161510.652000", "161510.654000", "161510.657000", "161510.660000", "161510.662000", "161510.665000", "161510.668000", "161550.587000", "161550.590000", "161550.592000", "161550.595000", "161550.598000", "161550.601000", "161550.603000", "161550.606000", "161550.609000", "161550.611000", "161550.614000", "161550.617000", "161550.620000", "161550.623000", "161550.625000", "161550.628000", "161638.874000", "161638.877000", "161638.881000", "161638.884000", "161638.888000", "161638.890000", "161638.893000", "161638.897000", "161638.905000", "161638.908000", "161638.911000", "161638.914000", "161638.917000", "161638.919000", "161638.922000", "161638.925000", "161638.928000", "161638.931000", "161638.934000", "161638.938000"],
      "InstanceNumber": [1, 2, 3, 4, 5, 6, 7, 8, 9, 10, 11, 12, 13, 14, 15, 16, 17, 18, 19, 20, 21, 22, 23, 24, 25, 26, 27, 28, 29, 30, 31, 32, 33, 34, 35, 36, 37, 38, 39, 40, 41, 42, 43, 44, 45, 46, 47, 48, 49, 50, 51, 52, 53, 54, 55, 56, 57, 58, 59, 60, 61, 62, 63, 64, 65, 66, 67, 68, 69, 70, 71, 72, 73, 74, 75, 76, 77, 78, 79, 80, 81, 82, 83, 84, 85, 86, 87, 88, 89, 90, 91, 92, 93, 94, 95, 96, 97, 98, 99, 100, 101, 102, 103, 104, 105, 106, 107, 108, 109, 110, 111, 112, 113, 114, 115, 116, 117, 118, 119, 120, 121, 122, 123, 124, 125, 126, 127, 128, 129, 130, 131, 132],
      "LargestImagePixelValue": [1493, 1895, 1475, 1995, 1454, 1494, 1597, 1447, 1401, 1478, 1420, 1596, 1964, 1798, 2013, 1901, 1465, 2137, 1518, 1538, 1497, 1449, 1712, 1727, 1434, 1734, 1475, 1477, 1691, 1421, 1396, 1609, 1456, 1400, 1630, 1444, 1578, 1616, 1482, 1416, 1484, 1450, 1463, 1517, 1429, 1537, 1484, 1427, 1486, 1462, 2009, 1528, 1480, 1472, 1436, 1472, 1468, 1665, 1433, 1486, 1625, 1486, 1353, 1501, 1713, 1889, 1515, 1418, 1487, 1430, 1536, 1478, 2051, 1921, 1487, 1454, 1454, 1476, 1416, 1646, 1469, 1793, 1577, 1461, 2047, 2076, 1485, 1470, 1595, 1467, 1477, 1538, 1517, 1507, 1467, 2143, 1502, 1488, 1520, 1515, 1458, 1526, 1472, 1504, 1440, 1529, 1454, 1474, 1536, 1560, 1480, 1824, 2173, 1477, 1620, 1508, 1427, 1472, 1473, 1489, 1480, 1484, 1430, 1392, 1462, 2406, 1482, 1444, 2253, 2263, 1436, 1479],
      "WindowCenter": [613.0, 615.0, 612.0, 615.0, 612.0, 612.0, 611.0, 610.0, 611.0, 612.0, 611.0, 612.0, 613.0, 613.0, 614.0, 613.0, 611.0, 614.0, 610.0, 611.0, 611.0, 611.0, 612.0, 612.0, 610.0, 611.0, 610.0, 610.0, 612.0, 610.0, 610.0, 611.0, 610.0, 610.0, 611.0, 610.0, 611.0, 611.0, 610.0, 610.0, 610.0, 611.0, 611.0, 611.0, 609.0, 611.0, 611.0, 610.0, 611.0, 611.0, 613.0, 611.0, 611.0, 611.0, 611.0, 611.0, 611.0, 612.0, 610.0, 610.0, 612.0, 610.0, 608.0, 610.0, 611.0, 612.0, 611.0, 610.0, 611.0, 611.0, 612.0, 611.0, 613.0, 612.0, 610.0, 605.0, 610.0, 610.0, 610.0, 612.0, 611.0, 613.0, 612.0, 611.0, 614.0, 613.0, 609.0, 610.0, 611.0, 610.0, 610.0, 611.0, 611.0, 611.0, 610.0, 614.0, 610.0, 610.0, 611.0, 611.0, 610.0, 611.0, 611.0, 610.0, 610.0, 611.0, 611.0, 612.0, 612.0, 612.0, 611.0, 613.0, 614.0, 610.0, 611.0, 611.0, 610.0, 611.0, 611.0, 611.0, 612.0, 612.0, 609.0, 605.0, 613.0, 615.0, 611.0, 610.0, 615.0, 614.0, 609.0, 610.0],
      "WindowWidth": [1291.0, 1293.0, 1287.0, 1292.0, 1287.0, 1287.0, 1285.0, 1282.0, 1286.0, 1287.0, 1286.0, 1287.0, 1289.0, 1289.0, 1291.0, 1288.0, 1285.0, 1290.0, 1283.0, 1284.0, 1286.0, 1285.0, 1288.0, 1287.0, 1283.0, 1285.0, 1284.0, 1284.0, 1286.0, 1284.0, 1283.0, 1286.0, 1284.0, 1283.0, 1286.0, 1283.0, 1285.0, 1285.0, 1284.0, 1283.0, 1284.0, 1285.0, 1285.0, 1285.0, 1282.0, 1284.0, 1285.0, 1284.0, 1286.0, 1284.0, 1288.0, 1285.0, 1284.0, 1285.0, 1284.0, 1286.0, 1285.0, 1286.0, 1283.0, 1284.0, 1286.0, 1284.0, 1279.0, 1283.0, 1285.0, 1286.0, 1284.0, 1283.0, 1285.0, 1286.0, 1287.0, 1285.0, 1289.0, 1287.0, 1283.0, 1271.0, 1283.0, 1284.0, 1284.0, 1288.0, 1285.0, 1289.0, 1288.0, 1286.0, 1290.0, 1288.0, 1282.0, 1283.0, 1285.0, 1283.0, 1283.0, 1285.0, 1284.0, 1284.0, 1283.0, 1290.0, 1283.0, 1284.0, 1285.0, 1285.0, 1284.0, 1284.0, 1285.0, 1284.0, 1283.0, 1285.0, 1286.0, 1287.0, 1287.0, 1286.0, 1286.0, 1289.0, 1291.0, 1284.0, 1285.0, 1285.0, 1284.0, 1285.0, 1285.0, 1285.0, 1287.0, 1288.0, 1281.0, 1273.0, 1289.0, 1292.0, 1285.0, 1284.0, 1292.0, 1290.0, 1282.0, 1284.0]
    },
    "slices": {}
  }
}