{
  "AcquisitionMatrixPE": 72,
  "AcquisitionNumber": 1,
  "AcquisitionTime": "16:23:31.995000",
  "BandwidthPerPixelPhaseEncode": 24.366,
  "BaseResolution": 72,
  "BodyPartExamined": "BRAIN",
  "CoilCombinationMethod": "Sum of Squares",
  "ConsistencyInfo": "N4_VE11C_LATEST_20160120",
  "ConversionSoftware": "dcm2niix",
  "ConversionSoftwareVersion": "v1.0.20220720",
  "DerivedVendorReportedEchoSpacing": 0.000570011,
  "DeviceSerialNumber": "45219",
  "DwellTime": 3.5e-06,
  "EchoTime": 0.03,
  "EchoTrainLength": 72,
  "EffectiveEchoSpacing": 0.000570011,
  "FlipAngle": 80,
  "HeudiconvVersion": "1.1.6",
  "ImageComments": "Reference volume for motion correction.",
  "ImageOrientationPatientDICOM": [1, 0, 0, 0, 0.999701, 0.0244322],
  "ImageOrientationText": "Tra>Cor(1.4)",
  "ImageType": [
    "ORIGINAL",
    "PRIMARY",
    "M",
    "ND",
    "NORM",
    "MOCO",
    "MOSAIC"
],
  "ImagingFrequency": 123.182,
  "InPlanePhaseEncodingDirectionDICOM": "COL",
  "InstitutionAddress": "First Avenue 660,New York,NYC,US,10016",
  "InstitutionName": "NYU LANGONE CBI",
  "InstitutionalDepartmentName": "Department",
  "MRAcquisitionType": "2D",
  "MagneticFieldStrength": 3,
  "Manufacturer": "Siemens",
  "ManufacturersModelName": "Skyra",
  "MatrixCoilMode": "SENSE",
  "Modality": "MR",
  "NonlinearGradientCorrection": false,
  "PartialFourier": 1,
  "PatientPosition": "HFS",
  "PercentPhaseFOV": 100,
  "PercentSampling": 100,
  "PhaseEncodingDirection": "j-",
  "PhaseEncodingSteps": 72,
  "PhaseResolution": 1,
  "PixelBandwidth": 1985,
  "ProcedureStepDescription": "MRI BRAIN WITHOUT IV CONTRAST",
  "ProtocolName": "REST_1_MoCo",
  "PulseSequenceDetails": "%SiemensSeq%\\ep2d_bold",
  "ReceiveCoilActiveElements": "HE1-4",
  "ReceiveCoilName": "HeadNeck_20",
  "ReconMatrixPE": 72,
  "RepetitionTime": 2.5,
  "SAR": 0.112928,
  "ScanOptions": "FS",
  "ScanningSequence": "EP",
  "SequenceName": "*epfid2d1_72",
  "SequenceVariant": "SK",
  "SeriesDescription": "MoCoSeries",
  "SeriesNumber": 10,
  "ShimSetting": [-902, -6973, 5029, 263, -174, -367, 275, -103],
  "SliceThickness": 3,
  "SliceTiming": [1.24, 0, 1.305, 0.065, 1.3725, 0.1325, 1.4375, 0.1975, 1.5025, 0.2625, 1.5675, 0.3275, 1.6325, 0.3925, 1.6975, 0.4575, 1.7625, 0.5225, 1.8275, 0.5875, 1.8925, 0.6525, 1.9575, 0.7175, 2.025, 0.785, 2.09, 0.85, 2.155, 0.915, 2.22, 0.98, 2.285, 1.045, 2.35, 1.11, 2.415, 1.175],
  "SoftwareVersions": "syngo MR E11",
  "SpacingBetweenSlices": 3,
  "StationName": "MRC45219",
  "TaskName": "rest",
  "TotalReadoutTime": 0.0404708,
  "TxRefAmp": 423.464,
  "dcmmeta_affine": [
    [-3.0, 0.0, 0.0, 108.0],
    [0.0, 2.9991044998168945, 0.07329653203487396, -110.83683776855469],
    [0.0, -0.07329653203487396, 2.9991044998168945, -48.27790832519531],
    [0.0, 0.0, 0.0, 1.0]
],
  "dcmmeta_reorient_transform": [
    [0.0, -1.0, 0.0, 71.0],
    [1.0, 0.0, 0.0, 0.0],
    [0.0, 0.0, 1.0, 0.0],
    [0.0, 0.0, 0.0, 1.0]
],
  "dcmmeta_shape": [72, 72, 38, 122],
  "dcmmeta_slice_dim": 2,
  "dcmmeta_version": 0.6,
  "global": {
    "const": {
      "AcquisitionMatrix": [72, 0, 0, 72],
      "AngioFlag": "N",
      "BitsAllocated": 16,
      "BitsStored": 12,
      "BodyPartExamined": "BRAIN",
      "Columns": 504,
      "CountryOfResidence": "United States of America [1]",
      "EchoNumbers": 1,
      "EchoTime": 30.0,
      "EchoTrainLength": 72,
      "FlipAngle": 80.0,
      "HighBit": 11,
      "ImageOrientationPatient": [1.0, 0.0, 0.0, 0.0, 0.99970148981559, 0.02443217674489],
      "ImagePositionPatient": [-756.0, -749.90614125725, -69.314014040768],
      "ImageType": [
        "ORIGINAL",
        "PRIMARY",
        "M",
        "ND",
        "NORM",
        "MOCO",
        "MOSAIC"
],
      "ImagedNucleus": "1H",
      "ImagingFrequency": 123.181974,
      "InPlanePhaseEncodingDirection": "COL",
      "MRAcquisitionType": "2D",
      "MagneticFieldStrength": 3.0,
      "Manufacturer": "SIEMENS",
      "ManufacturerModelName": "Skyra",
      "Modality": "MR",
      "NumberOfAverages": 1.0,
      "NumberOfPhaseEncodingSteps": 72,
      "PercentPhaseFieldOfView": 100.0,
      "PercentSampling": 100.0,
      "PerformedProcedureStepStartTime": "160557.472000",
      "PhotometricInterpretation": "MONOCHROME2",
      "PixelBandwidth": 1985.0,
      "PixelRepresentation": 0,
      "PixelSpacing": [3.0, 3.0],
      "PregnancyStatus": 4,
      "ProcedureCodeSequence": [
        {
          "CodeMeaning": "MRI BRAIN WITHOUT IV CONTRAST",
          "CodeValue": "IMG269",
          "CodingSchemeDesignator": "L"
        }
],
      "ProtocolName": "REST_1",
      "RepetitionTime": 2500.0,
      "RequestAttributesSequence": [
        {
          "RequestedProcedureID": "125739968",
          "ScheduledProcedureStepDescription": "MRI BRAIN WITHOUT IV CONTRAST",
          "ScheduledProcedureStepID": "E9173253",
          "ScheduledProtocolCodeSequence": [
            {
              "CodeMeaning": "MRI BRAIN WITHOUT IV CONTRAST",
              "CodeValue": "651061",
              "CodingSchemeDesignator": "L"
            }
]
        }
],
      "RequestedProcedureCodeSequence": [
        {
          "CodeMeaning": "MRI BRAIN WITHOUT IV CONTRAST",
          "CodeValue": "IMG269",
          "CodingSchemeDesignator": "L"
        }
],
      "Rows": 504,
      "SAR": 0.11292846521952,
      "SamplesPerPixel": 1,
      "ScanOptions": "FS",
      "ScanningSequence": "EP",
      "SequenceName": "*epfid2d1_72",
      "SequenceVariant": "SK",
      "SeriesDescription": "MoCoSeries",
      "SeriesNumber": 10,
      "SeriesTime": "162440.149000",
      "SliceLocation": -50.971483716378,
      "SliceThickness": 3.0,
      "SmallestImagePixelValue": 0,
      "SmokingStatus": "UNKNOWN",
      "SoftwareVersions": "syngo MR E11",
      "SpacingBetweenSlices": 3.000000004687,
      "SpecificCharacterSet": "ISO_IR 100",
      "StudyID": "125739968",
      "StudyTime": "160557.311000",
      "TransmitCoilName": "Body",
      "VariableFlipAngleFlag": "N",
      "WindowCenterWidthExplanation": "Algo1",
      "dBdt": 0.0},
    "slices": {}
  },
  "time": {
    "samples": {
      "AcquisitionNumber": [1, 2, 3, 4, 5, 6, 7, 8, 9, 10, 11, 12, 13, 14, 15, 16, 17, 18, 19, 20, 21, 22, 23, 24, 25, 26, 27, 28, 29, 30, 31, 32, 33, 34, 35, 36, 37, 38, 39, 40, 41, 42, 43, 44, 45, 46, 47, 48, 49, 50, 51, 52, 53, 54, 55, 56, 57, 58, 59, 60, 61, 62, 63, 64, 65, 66, 67, 68, 69, 70, 71, 72, 73, 74, 75, 76, 77, 78, 79, 80, 81, 82, 83, 84, 85, 86, 87, 88, 89, 90, 91, 92, 93, 94, 95, 96, 97, 98, 99, 100, 101, 102, 103, 104, 105, 106, 107, 108, 109, 110, 111, 112, 113, 114, 115, 116, 117, 118, 119, 120, 121, 122],
      "AcquisitionTime": ["162331.995000", "162334.495000", "162336.995000", "162339.495000", "162341.995000", "162344.495000", "162346.995000", "162349.495000", "162351.995000", "162354.495000", "162356.995000", "162359.495000", "162401.995000", "162404.495000", "162406.995000", "162409.495000", "162411.995000", "162414.495000", "162416.995000", "162419.495000", "162421.995000", "162424.495000", "162426.995000", "162429.495000", "162431.995000", "162434.495000", "162436.995000", "162439.495000", "162441.995000", "162444.495000", "162446.995000", "162449.495000", "162451.995000", "162454.495000", "162456.995000", "162459.495000", "162501.995000", "162504.495000", "162506.995000", "162509.495000", "162511.995000", "162514.495000", "162516.995000", "162519.495000", "162521.995000", "162524.495000", "162526.995000", "162529.495000", "162531.995000", "162534.495000", "162536.995000", "162539.495000", "162541.995000", "162544.495000", "162546.995000", "162549.495000", "162551.995000", "162554.495000", "162556.995000", "162559.495000", "162601.995000", "162604.495000", "162606.995000", "162609.495000", "162611.995000", "162614.495000", "162616.995000", "162619.495000", "162621.995000", "162624.495000", "162626.995000", "162629.495000", "162631.995000", "162634.495000", "162636.995000", "162639.495000", "162641.995000", "162644.495000", "162646.995000", "162649.495000", "162651.995000", "162654.495000", "162656.995000", "162659.495000", "162701.995000", "162704.495000", "162706.995000", "162709.495000", "162711.995000", "162714.495000", "162716.995000", "162719.495000", "162721.995000", "162724.495000", "162726.995000", "162729.495000", "162731.995000", "162734.495000", "162736.995000", "162739.495000", "162741.995000", "162744.495000", "162746.995000", "162749.495000", "162751.995000", "162754.495000", "162756.995000", "162759.495000", "162801.995000", "162804.495000", "162806.995000", "162809.495000", "162811.995000", "162814.495000", "162816.995000", "162819.495000", "162821.995000", "162824.495000", "162826.995000", "162829.495000", "162831.995000", "162834.495000"],
      "ContentTime": ["162440.151000", "162440.154000", "162440.157000", "162440.159000", "162440.162000", "162440.172000", "162440.174000", "162440.177000", "162440.180000", "162440.183000", "162440.185000", "162440.188000", "162440.191000", "162440.193000", "162440.196000", "162440.199000", "162440.201000", "162440.204000", "162440.207000", "162440.210000", "162440.212000", "162440.215000", "162440.218000", "162440.221000", "162440.223000", "162440.226000", "162440.229000", "162540.135000", "162540.138000", "162540.141000", "162540.143000", "162540.146000", "162540.150000", "162540.152000", "162540.155000", "162540.158000", "162540.161000", "162540.164000", "162540.166000", "162540.169000", "162540.172000", "162540.175000", "162540.177000", "162540.180000", "162540.183000", "162540.186000", "162540.188000", "162540.191000", "162540.194000", "162540.197000", "162540.199000", "162640.124000", "162640.127000", "162640.130000", "162640.133000", "162640.135000", "162640.138000", "162640.141000", "162640.144000", "162640.147000", "162640.150000", "162640.153000", "162640.156000", "162640.158000", "162640.162000", "162640.164000", "162640.167000", "162640.170000", "162640.172000", "162640.175000", "162640.178000", "162640.181000", "162640.183000", "162640.186000", "162640.189000", "162740.129000", "162740.132000", "162740.135000", "162740.137000", "162740.140000", "162740.143000", "162740.146000", "162740.149000", "162740.152000", "162740.154000", "162740.157000", "162740.160000", "162740.163000", "162740.165000", "162740.168000", "162740.171000", "162740.174000", "162740.177000", "162740.180000", "162740.182000", "162740.185000", "162740.188000", "162740.191000", "162740.193000", "162836.788000", "162836.791000", "162836.794000", "162836.797000", "162836.800000", "162836.803000", "162836.806000", "162836.809000", "162836.811000", "162836.815000", "162836.817000", "162836.820000", "162836.823000", "162836.826000", "162836.829000", "162836.832000", "162836.834000", "162836.837000", "162836.840000", "162836.843000", "162836.845000", "162836.849000", "162836.852000"],
      "InstanceCreationTime": ["162440.151000", "162440.154000", "162440.157000", "162440.159000", "162440.162000", "162440.172000", "162440.174000", "162440.177000", "162440.180000", "162440.183000", "162440.185000", "162440.188000", "162440.191000", "162440.193000", "162440.196000", "162440.199000", "162440.201000", "162440.204000", "162440.207000", "162440.210000", "162440.212000", "162440.215000", "162440.218000", "162440.221000", "162440.223000", "162440.226000", "162440.229000", "162540.135000", "162540.138000", "162540.141000", "162540.143000", "162540.146000", "162540.150000", "162540.152000", "162540.155000", "162540.158000", "162540.161000", "162540.164000", "162540.166000", "162540.169000", "162540.172000", "162540.175000", "162540.177000", "162540.180000", "162540.183000", "162540.186000", "162540.188000", "162540.191000", "162540.194000", "162540.197000", "162540.199000", "162640.124000", "162640.127000", "162640.130000", "162640.133000", "162640.135000", "162640.138000", "162640.141000", "162640.144000", "162640.147000", "162640.150000", "162640.153000", "162640.156000", "162640.158000", "162640.162000", "162640.164000", "162640.167000", "162640.170000", "162640.172000", "162640.175000", "162640.178000", "162640.181000", "162640.183000", "162640.186000", "162640.189000", "162740.129000", "162740.132000", "162740.135000", "162740.137000", "162740.140000", "162740.143000", "162740.146000", "162740.149000", "162740.152000", "162740.154000", "162740.157000", "162740.160000", "162740.163000", "162740.165000", "162740.168000", "162740.171000", "162740.174000", "162740.177000", "162740.180000", "162740.182000", "162740.185000", "162740.188000", "162740.191000", "162740.193000", "162836.788000", "162836.791000", "162836.794000", "162836.797000", "162836.800000", "162836.803000", "162836.806000", "162836.809000", "162836.811000", "162836.815000", "162836.817000", "162836.820000", "162836.823000", "162836.826000", "162836.829000", "162836.832000", "162836.834000", "162836.837000", "162836.840000", "162836.843000", "162836.845000", "162836.849000", "162836.852000"],
      "InstanceNumber": [1, 2, 3, 4, 5, 6, 7, 8, 9, 10, 11, 12, 13, 14, 15, 16, 17, 18, 19, 20, 21, 22, 23, 24, 25, 26, 27, 28, 29, 30, 31, 32, 33, 34, 35, 36, 37, 38, 39, 40, 41, 42, 43, 44, 45, 46, 47, 48, 49, 50, 51, 52, 53, 54, 55, 56, 57, 58, 59, 60, 61, 62, 63, 64, 65, 66, 67, 68, 69, 70, 71, 72, 73, 74, 75, 76, 77, 78, 79, 80, 81, 82, 83, 84, 85, 86, 87, 88, 89, 90, 91, 92, 93, 94, 95, 96, 97, 98, 99, 100, 101, 102, 103, 104, 105, 106, 107, 108, 109, 110, 111, 112, 113, 114, 115, 116, 117, 118, 119, 120, 121, 122],
      "LargestImagePixelValue": [1487, 1785, 1581, 1608, 1481, 1893, 1571, 1612, 1514, 1818, 1690, 1762, 1682, 1668, 1561, 1598, 1590, 1586, 1840, 1830, 1871, 1590, 1487, 1668, 1526, 1595, 1548, 1581, 1498, 1547, 1535, 1474, 1488, 1519, 1460, 1641, 1458, 1534, 1604, 1516, 1453, 1827, 1950, 1756, 1535, 1465, 1464, 1538, 1698, 1508, 1503, 1720, 1682, 1466, 1484, 1491, 1502, 2012, 1821, 1459, 1449, 1466, 1620, 1506, 1659, 1915, 1800, 1596, 1467, 1578, 2092, 1695, 1478, 1990, 1958, 1623, 1549, 1656, 1476, 1505, 1845, 1730, 1902, 1461, 1545, 1787, 1798, 1464, 1567, 1698, 1481, 1690, 2047, 1458, 1522, 1606, 1473, 1547, 1586, 1528, 1532, 1807, 1508, 1515, 1780, 1732, 1612, 1652, 1500, 1544, 1516, 1587, 1596, 1806, 1493, 1794, 1690, 1922, 1539, 1470, 1678, 1603],
      "WindowCenter": [617.0, 618.0, 616.0, 616.0, 615.0, 617.0, 615.0, 616.0, 615.0, 616.0, 615.0, 615.0, 614.0, 614.0, 614.0, 614.0, 614.0, 613.0, 615.0, 614.0, 615.0, 613.0, 612.0, 613.0, 613.0, 614.0, 613.0, 605.0, 612.0, 612.0, 613.0, 613.0, 612.0, 613.0, 613.0, 614.0, 613.0, 614.0, 613.0, 615.0, 614.0, 616.0, 616.0, 614.0, 612.0, 612.0, 613.0, 613.0, 614.0, 613.0, 613.0, 614.0, 613.0, 612.0, 612.0, 613.0, 612.0, 593.0, 606.0, 611.0, 612.0, 612.0, 613.0, 613.0, 614.0, 616.0, 616.0, 615.0, 615.0, 615.0, 617.0, 615.0, 614.0, 616.0, 615.0, 613.0, 613.0, 614.0, 613.0, 613.0, 615.0, 613.0, 614.0, 613.0, 613.0, 615.0, 615.0, 613.0, 613.0, 614.0, 613.0, 614.0, 615.0, 612.0, 613.0, 614.0, 613.0, 613.0, 614.0, 609.0, 614.0, 615.0, 613.0, 614.0, 615.0, 615.0, 614.0, 614.0, 613.0, 614.0, 614.0, 614.0, 615.0, 616.0, 613.0, 616.0, 614.0, 616.0, 614.0, 614.0, 616.0, 615.0],
      "WindowWidth": [1299.0, 1300.0, 1297.0, 1297.0, 1295.0, 1299.0, 1295.0, 1296.0, 1294.0, 1297.0, 1295.0, 1295.0, 1292.0, 1293.0, 1293.0, 1293.0, 1292.0, 1291.0, 1295.0, 1293.0, 1293.0, 1291.0, 1289.0, 1291.0, 1290.0, 1292.0, 1290.0, 1272.0, 1287.0, 1289.0, 1291.0, 1290.0, 1289.0, 1291.0, 1289.0, 1292.0, 1291.0, 1293.0, 1291.0, 1295.0, 1293.0, 1297.0, 1295.0, 1291.0, 1288.0, 1289.0, 1290.0, 1290.0, 1292.0, 1291.0, 1291.0, 1292.0, 1290.0, 1288.0, 1289.0, 1291.0, 1288.0, 1242.0, 1276.0, 1287.0, 1287.0, 1288.0, 1290.0, 1291.0, 1293.0, 1296.0, 1295.0, 1295.0, 1294.0, 1294.0, 1298.0, 1294.0, 1292.0, 1296.0, 1295.0, 1291.0, 1290.0, 1293.0, 1291.0, 1291.0, 1293.0, 1291.0, 1292.0, 1290.0, 1291.0, 1293.0, 1294.0, 1291.0, 1291.0, 1292.0, 1290.0, 1292.0, 1294.0, 1288.0, 1291.0, 1291.0, 1289.0, 1291.0, 1291.0, 1282.0, 1292.0, 1294.0, 1291.0, 1293.0, 1295.0, 1293.0, 1292.0, 1293.0, 1291.0, 1292.0, 1291.0, 1293.0, 1295.0, 1296.0, 1291.0, 1296.0, 1293.0, 1295.0, 1293.0, 1292.0, 1296.0, 1294.0]
    },
    "slices": {}
  }
}