{
  "AcquisitionMatrixPE": 72,
  "AcquisitionNumber": 1,
  "AcquisitionTime": "16:23:31.995000",
  "BandwidthPerPixelPhaseEncode": 24.366,
  "BaseResolution": 72,
  "BodyPartExamined": "BRAIN",
  "CoilCombinationMethod": "Sum of Squares",
  "ConsistencyInfo": "N4_VE11C_LATEST_20160120",
  "ConversionSoftware": "dcm2niix",
  "ConversionSoftwareVersion": "v1.0.20220720",
  "DerivedVendorReportedEchoSpacing": 0.000570011,
  "DeviceSerialNumber": "45219",
  "DwellTime": 3.5e-06,
  "EchoTime": 0.03,
  "EchoTrainLength": 72,
  "EffectiveEchoSpacing": 0.000570011,
  "FlipAngle": 80,
  "HeudiconvVersion": "1.1.6",
  "ImageOrientationPatientDICOM": [1, 0, 0, 0, 0.999701, 0.0244322],
  "ImageOrientationText": "Tra>Cor(1.4)",
  "ImageType": [
    "ORIGINAL",
    "PRIMARY",
    "M",
    "ND",
    "NORM",
    "MOSAIC"
],
  "ImagingFrequency": 123.182,
  "InPlanePhaseEncodingDirectionDICOM": "COL",
  "InstitutionAddress": "First Avenue 660,New York,NYC,US,10016",
  "InstitutionName": "NYU LANGONE CBI",
  "InstitutionalDepartmentName": "Department",
  "MRAcquisitionType": "2D",
  "MagneticFieldStrength": 3,
  "Manufacturer": "Siemens",
  "ManufacturersModelName": "Skyra",
  "MatrixCoilMode": "SENSE",
  "Modality": "MR",
  "NonlinearGradientCorrection": false,
  "PartialFourier": 1,
  "PatientPosition": "HFS",
  "PercentPhaseFOV": 100,
  "PercentSampling": 100,
  "PhaseEncodingDirection": "j-",
  "PhaseEncodingSteps": 72,
  "PhaseResolution": 1,
  "PixelBandwidth": 1985,
  "ProcedureStepDescription": "MRI BRAIN WITHOUT IV CONTRAST",
  "ProtocolName": "REST_1",
  "PulseSequenceDetails": "%SiemensSeq%\\ep2d_bold",
  "ReceiveCoilActiveElements": "HE1-4",
  "ReceiveCoilName": "HeadNeck_20",
  "ReconMatrixPE": 72,
  "RepetitionTime": 2.5,
  "SAR": 0.112928,
  "ScanOptions": "FS",
  "ScanningSequence": "EP",
  "SequenceName": "*epfid2d1_72",
  "SequenceVariant": "SK",
  "SeriesDescription": "REST_1",
  "SeriesNumber": 9,
  "ShimSetting": [-902, -6973, 5029, 263, -174, -367, 275, -103],
  "SliceThickness": 3,
  "SliceTiming": [1.24, 0, 1.305, 0.065, 1.3725, 0.1325, 1.4375, 0.1975, 1.5025, 0.2625, 1.5675, 0.3275, 1.6325, 0.3925, 1.6975, 0.4575, 1.7625, 0.5225, 1.8275, 0.5875, 1.8925, 0.6525, 1.9575, 0.7175, 2.025, 0.785, 2.09, 0.85, 2.155, 0.915, 2.22, 0.98, 2.285, 1.045, 2.35, 1.11, 2.415, 1.175],
  "SoftwareVersions": "syngo MR E11",
  "SpacingBetweenSlices": 3,
  "StationName": "MRC45219",
  "TaskName": "rest",
  "TotalReadoutTime": 0.0404708,
  "TxRefAmp": 423.464,
  "dcmmeta_affine": [
    [-3.0, 0.0, 0.0, 108.0],
    [0.0, 2.9991044998168945, 0.07329653203487396, -110.83683776855469],
    [0.0, -0.07329653203487396, 2.9991044998168945, -48.27790832519531],
    [0.0, 0.0, 0.0, 1.0]
],
  "dcmmeta_reorient_transform": [
    [0.0, -1.0, 0.0, 71.0],
    [1.0, 0.0, 0.0, 0.0],
    [0.0, 0.0, 1.0, 0.0],
    [0.0, 0.0, 0.0, 1.0]
],
  "dcmmeta_shape": [72, 72, 38, 122],
  "dcmmeta_slice_dim": 2,
  "dcmmeta_version": 0.6,
  "global": {
    "const": {
      "AcquisitionMatrix": [72, 0, 0, 72],
      "AngioFlag": "N",
      "BitsAllocated": 16,
      "BitsStored": 12,
      "BodyPartExamined": "BRAIN",
      "Columns": 504,
      "CountryOfResidence": "United States of America [1]",
      "EchoNumbers": 1,
      "EchoTime": 30.0,
      "EchoTrainLength": 72,
      "FlipAngle": 80.0,
      "HighBit": 11,
      "ImageOrientationPatient": [1.0, 0.0, 0.0, 0.0, 0.99970148981559, 0.02443217674489],
      "ImagePositionPatient": [-756.0, -749.90614125725, -69.314014040768],
      "ImageType": [
        "ORIGINAL",
        "PRIMARY",
        "M",
        "ND",
        "NORM",
        "MOSAIC"
],
      "ImagedNucleus": "1H",
      "ImagingFrequency": 123.181974,
      "InPlanePhaseEncodingDirection": "COL",
      "MRAcquisitionType": "2D",
      "MagneticFieldStrength": 3.0,
      "Manufacturer": "SIEMENS",
      "ManufacturerModelName": "Skyra",
      "Modality": "MR",
      "NumberOfAverages": 1.0,
      "NumberOfPhaseEncodingSteps": 72,
      "PercentPhaseFieldOfView": 100.0,
      "PercentSampling": 100.0,
      "PerformedProcedureStepStartTime": "160557.472000",
      "PhotometricInterpretation": "MONOCHROME2",
      "PixelBandwidth": 1985.0,
      "PixelRepresentation": 0,
      "PixelSpacing": [3.0, 3.0],
      "PregnancyStatus": 4,
      "ProcedureCodeSequence": [
        {
          "CodeMeaning": "MRI BRAIN WITHOUT IV CONTRAST",
          "CodeValue": "IMG269",
          "CodingSchemeDesignator": "L"
        }
],
      "ProtocolName": "REST_1",
      "RepetitionTime": 2500.0,
      "RequestAttributesSequence": [
        {
          "RequestedProcedureID": "125739968",
          "ScheduledProcedureStepDescription": "MRI BRAIN WITHOUT IV CONTRAST",
          "ScheduledProcedureStepID": "E9173253",
          "ScheduledProtocolCodeSequence": [
            {
              "CodeMeaning": "MRI BRAIN WITHOUT IV CONTRAST",
              "CodeValue": "651061",
              "CodingSchemeDesignator": "L"
            }
]
        }
],
      "RequestedProcedureCodeSequence": [
        {
          "CodeMeaning": "MRI BRAIN WITHOUT IV CONTRAST",
          "CodeValue": "IMG269",
          "CodingSchemeDesignator": "L"
        }
],
      "Rows": 504,
      "SAR": 0.11292846521952,
      "SamplesPerPixel": 1,
      "ScanOptions": "FS",
      "ScanningSequence": "EP",
      "SequenceName": "*epfid2d1_72",
      "SequenceVariant": "SK",
      "SeriesDescription": "REST_1",
      "SeriesNumber": 9,
      "SeriesTime": "162440.044000",
      "SliceLocation": -50.971483716378,
      "SliceThickness": 3.0,
      "SmallestImagePixelValue": 0,
      "SmokingStatus": "UNKNOWN",
      "SoftwareVersions": "syngo MR E11",
      "SpacingBetweenSlices": 3.000000004687,
      "SpecificCharacterSet": "ISO_IR 100",
      "StudyID": "125739968",
      "StudyTime": "160557.311000",
      "TransmitCoilName": "Body",
      "VariableFlipAngleFlag": "N",
      "WindowCenterWidthExplanation": "Algo1",
      "dBdt": 0.0},
    "slices": {}
  },
  "time": {
    "samples": {
      "AcquisitionNumber": [1, 2, 3, 4, 5, 6, 7, 8, 9, 10, 11, 12, 13, 14, 15, 16, 17, 18, 19, 20, 21, 22, 23, 24, 25, 26, 27, 28, 29, 30, 31, 32, 33, 34, 35, 36, 37, 38, 39, 40, 41, 42, 43, 44, 45, 46, 47, 48, 49, 50, 51, 52, 53, 54, 55, 56, 57, 58, 59, 60, 61, 62, 63, 64, 65, 66, 67, 68, 69, 70, 71, 72, 73, 74, 75, 76, 77, 78, 79, 80, 81, 82, 83, 84, 85, 86, 87, 88, 89, 90, 91, 92, 93, 94, 95, 96, 97, 98, 99, 100, 101, 102, 103, 104, 105, 106, 107, 108, 109, 110, 111, 112, 113, 114, 115, 116, 117, 118, 119, 120, 121, 122],
      "AcquisitionTime": ["162331.995000", "162334.495000", "162336.995000", "162339.495000", "162341.995000", "162344.495000", "162346.995000", "162349.495000", "162351.995000", "162354.495000", "162356.995000", "162359.495000", "162401.995000", "162404.495000", "162406.995000", "162409.495000", "162411.995000", "162414.495000", "162416.995000", "162419.495000", "162421.995000", "162424.495000", "162426.995000", "162429.495000", "162431.995000", "162434.495000", "162436.995000", "162439.495000", "162441.995000", "162444.495000", "162446.995000", "162449.495000", "162451.995000", "162454.495000", "162456.995000", "162459.495000", "162501.995000", "162504.495000", "162506.995000", "162509.495000", "162511.995000", "162514.495000", "162516.995000", "162519.495000", "162521.995000", "162524.495000", "162526.995000", "162529.495000", "162531.995000", "162534.495000", "162536.995000", "162539.495000", "162541.995000", "162544.495000", "162546.995000", "162549.495000", "162551.995000", "162554.495000", "162556.995000", "162559.495000", "162601.995000", "162604.495000", "162606.995000", "162609.495000", "162611.995000", "162614.495000", "162616.995000", "162619.495000", "162621.995000", "162624.495000", "162626.995000", "162629.495000", "162631.995000", "162634.495000", "162636.995000", "162639.495000", "162641.995000", "162644.495000", "162646.995000", "162649.495000", "162651.995000", "162654.495000", "162656.995000", "162659.495000", "162701.995000", "162704.495000", "162706.995000", "162709.495000", "162711.995000", "162714.495000", "162716.995000", "162719.495000", "162721.995000", "162724.495000", "162726.995000", "162729.495000", "162731.995000", "162734.495000", "162736.995000", "162739.495000", "162741.995000", "162744.495000", "162746.995000", "162749.495000", "162751.995000", "162754.495000", "162756.995000", "162759.495000", "162801.995000", "162804.495000", "162806.995000", "162809.495000", "162811.995000", "162814.495000", "162816.995000", "162819.495000", "162821.995000", "162824.495000", "162826.995000", "162829.495000", "162831.995000", "162834.495000"],
      "ContentTime": ["162440.048000", "162440.051000", "162440.054000", "162440.057000", "162440.060000", "162440.062000", "162440.065000", "162440.067000", "162440.070000", "162440.073000", "162440.075000", "162440.078000", "162440.081000", "162440.083000", "162440.086000", "162440.089000", "162440.091000", "162440.094000", "162440.097000", "162440.099000", "162440.102000", "162440.105000", "162440.107000", "162440.110000", "162440.113000", "162440.115000", "162440.118000", "162540.029000", "162540.032000", "162540.035000", "162540.037000", "162540.040000", "162540.043000", "162540.045000", "162540.048000", "162540.050000", "162540.053000", "162540.065000", "162540.068000", "162540.070000", "162540.073000", "162540.076000", "162540.079000", "162540.081000", "162540.084000", "162540.087000", "162540.090000", "162540.092000", "162540.095000", "162540.098000", "162540.100000", "162640.028000", "162640.031000", "162640.033000", "162640.036000", "162640.038000", "162640.041000", "162640.044000", "162640.047000", "162640.049000", "162640.052000", "162640.055000", "162640.057000", "162640.060000", "162640.063000", "162640.066000", "162640.068000", "162640.071000", "162640.074000", "162640.076000", "162640.079000", "162640.082000", "162640.084000", "162640.087000", "162640.090000", "162740.029000", "162740.032000", "162740.034000", "162740.037000", "162740.040000", "162740.042000", "162740.045000", "162740.048000", "162740.051000", "162740.053000", "162740.056000", "162740.058000", "162740.061000", "162740.064000", "162740.066000", "162740.069000", "162740.072000", "162740.074000", "162740.077000", "162740.080000", "162740.083000", "162740.085000", "162740.088000", "162740.090000", "162836.663000", "162836.666000", "162836.669000", "162836.672000", "162836.675000", "162836.677000", "162836.680000", "162836.683000", "162836.685000", "162836.688000", "162836.691000", "162836.695000", "162836.702000", "162836.705000", "162836.708000", "162836.711000", "162836.714000", "162836.719000", "162836.724000", "162836.730000", "162836.733000", "162836.736000", "162836.739000"],
      "InstanceCreationTime": ["162440.048000", "162440.051000", "162440.054000", "162440.057000", "162440.060000", "162440.062000", "162440.065000", "162440.067000", "162440.070000", "162440.073000", "162440.075000", "162440.078000", "162440.081000", "162440.083000", "162440.086000", "162440.089000", "162440.091000", "162440.094000", "162440.097000", "162440.099000", "162440.102000", "162440.105000", "162440.107000", "162440.110000", "162440.113000", "162440.115000", "162440.118000", "162540.029000", "162540.032000", "162540.035000", "162540.037000", "162540.040000", "162540.043000", "162540.045000", "162540.048000", "162540.050000", "162540.053000", "162540.065000", "162540.068000", "162540.070000", "162540.073000", "162540.076000", "162540.079000", "162540.081000", "162540.084000", "162540.087000", "162540.090000", "162540.092000", "162540.095000", "162540.098000", "162540.100000", "162640.028000", "162640.031000", "162640.033000", "162640.036000", "162640.038000", "162640.041000", "162640.044000", "162640.047000", "162640.049000", "162640.052000", "162640.055000", "162640.057000", "162640.060000", "162640.063000", "162640.066000", "162640.068000", "162640.071000", "162640.074000", "162640.076000", "162640.079000", "162640.082000", "162640.084000", "162640.087000", "162640.090000", "162740.029000", "162740.032000", "162740.034000", "162740.037000", "162740.040000", "162740.042000", "162740.045000", "162740.048000", "162740.051000", "162740.053000", "162740.056000", "162740.058000", "162740.061000", "162740.064000", "162740.066000", "162740.069000", "162740.072000", "162740.074000", "162740.077000", "162740.080000", "162740.083000", "162740.085000", "162740.088000", "162740.090000", "162836.663000", "162836.666000", "162836.669000", "162836.672000", "162836.675000", "162836.677000", "162836.680000", "162836.683000", "162836.685000", "162836.688000", "162836.691000", "162836.695000", "162836.702000", "162836.705000", "162836.708000", "162836.711000", "162836.714000", "162836.719000", "162836.724000", "162836.730000", "162836.733000", "162836.736000", "162836.739000"],
      "InstanceNumber": [1, 2, 3, 4, 5, 6, 7, 8, 9, 10, 11, 12, 13, 14, 15, 16, 17, 18, 19, 20, 21, 22, 23, 24, 25, 26, 27, 28, 29, 30, 31, 32, 33, 34, 35, 36, 37, 38, 39, 40, 41, 42, 43, 44, 45, 46, 47, 48, 49, 50, 51, 52, 53, 54, 55, 56, 57, 58, 59, 60, 61, 62, 63, 64, 65, 66, 67, 68, 69, 70, 71, 72, 73, 74, 75, 76, 77, 78, 79, 80, 81, 82, 83, 84, 85, 86, 87, 88, 89, 90, 91, 92, 93, 94, 95, 96, 97, 98, 99, 100, 101, 102, 103, 104, 105, 106, 107, 108, 109, 110, 111, 112, 113, 114, 115, 116, 117, 118, 119, 120, 121, 122],
      "LargestImagePixelValue": [1487, 1786, 1565, 1607, 1484, 1893, 1572, 1621, 1518, 1836, 1688, 1752, 1683, 1659, 1557, 1615, 1587, 1611, 1832, 1842, 1888, 1597, 1482, 1674, 1519, 1618, 1541, 1678, 1458, 1505, 1472, 1428, 1460, 1622, 1475, 1681, 1414, 1463, 1540, 1499, 1415, 1830, 2038, 1773, 1528, 1422, 1418, 1504, 1732, 1499, 1447, 1789, 1784, 1505, 1419, 1474, 1484, 1885, 1823, 1504, 1444, 1460, 1599, 1556, 1678, 1934, 1841, 1653, 1467, 1646, 2170, 1672, 1485, 1959, 1957, 1600, 1595, 1686, 1526, 1490, 1797, 1785, 1978, 1446, 1597, 1846, 1850, 1506, 1619, 1698, 1476, 1768, 2121, 1499, 1502, 1588, 1462, 1589, 1571, 1579, 1515, 1893, 1467, 1474, 1869, 1817, 1594, 1761, 1496, 1514, 1482, 1578, 1679, 1959, 1477, 1908, 1753, 2061, 1504, 1451, 1877, 1576],
      "WindowCenter": [617.0, 618.0, 616.0, 616.0, 615.0, 617.0, 615.0, 616.0, 615.0, 616.0, 615.0, 615.0, 614.0, 615.0, 614.0, 615.0, 614.0, 614.0, 615.0, 614.0, 615.0, 613.0, 612.0, 613.0, 613.0, 614.0, 613.0, 606.0, 612.0, 613.0, 614.0, 613.0, 613.0, 615.0, 614.0, 615.0, 614.0, 615.0, 614.0, 616.0, 615.0, 617.0, 617.0, 614.0, 612.0, 613.0, 613.0, 614.0, 615.0, 614.0, 614.0, 615.0, 614.0, 613.0, 613.0, 613.0, 613.0, 591.0, 606.0, 612.0, 612.0, 612.0, 613.0, 613.0, 615.0, 616.0, 616.0, 616.0, 615.0, 615.0, 617.0, 615.0, 614.0, 616.0, 616.0, 613.0, 614.0, 615.0, 614.0, 613.0, 614.0, 614.0, 615.0, 613.0, 614.0, 615.0, 615.0, 614.0, 614.0, 614.0, 613.0, 614.0, 616.0, 612.0, 613.0, 614.0, 613.0, 614.0, 614.0, 610.0, 614.0, 615.0, 613.0, 614.0, 615.0, 615.0, 613.0, 615.0, 613.0, 614.0, 613.0, 614.0, 615.0, 617.0, 613.0, 616.0, 615.0, 616.0, 614.0, 613.0, 617.0, 614.0],
      "WindowWidth": [1299.0, 1300.0, 1296.0, 1297.0, 1295.0, 1299.0, 1295.0, 1296.0, 1294.0, 1297.0, 1295.0, 1295.0, 1293.0, 1293.0, 1293.0, 1294.0, 1292.0, 1292.0, 1295.0, 1293.0, 1293.0, 1291.0, 1289.0, 1291.0, 1290.0, 1292.0, 1290.0, 1275.0, 1289.0, 1290.0, 1292.0, 1290.0, 1290.0, 1294.0, 1292.0, 1294.0, 1292.0, 1294.0, 1292.0, 1297.0, 1294.0, 1298.0, 1298.0, 1292.0, 1289.0, 1290.0, 1291.0, 1292.0, 1294.0, 1293.0, 1292.0, 1294.0, 1293.0, 1290.0, 1290.0, 1291.0, 1290.0, 1241.0, 1276.0, 1288.0, 1288.0, 1289.0, 1290.0, 1291.0, 1293.0, 1296.0, 1296.0, 1296.0, 1294.0, 1295.0, 1299.0, 1295.0, 1293.0, 1296.0, 1295.0, 1291.0, 1291.0, 1293.0, 1292.0, 1291.0, 1293.0, 1291.0, 1293.0, 1290.0, 1292.0, 1294.0, 1295.0, 1292.0, 1292.0, 1293.0, 1291.0, 1293.0, 1295.0, 1289.0, 1291.0, 1291.0, 1289.0, 1291.0, 1292.0, 1282.0, 1292.0, 1294.0, 1290.0, 1292.0, 1295.0, 1294.0, 1291.0, 1293.0, 1291.0, 1292.0, 1291.0, 1293.0, 1295.0, 1298.0, 1291.0, 1297.0, 1293.0, 1295.0, 1293.0, 1292.0, 1298.0, 1293.0]
    },
    "slices": {}
  }
}