{
  "AcquisitionMatrixPE": 72,
  "AcquisitionNumber": 1,
  "AcquisitionTime": "16:29:17.197500",
  "BandwidthPerPixelPhaseEncode": 24.366,
  "BaseResolution": 72,
  "BodyPartExamined": "BRAIN",
  "CoilCombinationMethod": "Sum of Squares",
  "ConsistencyInfo": "N4_VE11C_LATEST_20160120",
  "ConversionSoftware": "dcm2niix",
  "ConversionSoftwareVersion": "v1.0.20220720",
  "DerivedVendorReportedEchoSpacing": 0.000570011,
  "DeviceSerialNumber": "45219",
  "DwellTime": 3.5e-06,
  "EchoTime": 0.03,
  "EchoTrainLength": 72,
  "EffectiveEchoSpacing": 0.000570011,
  "FlipAngle": 80,
  "HeudiconvVersion": "1.1.6",
  "ImageComments": "Reference volume for motion correction.",
  "ImageOrientationPatientDICOM": [1, 0, 0, 0, 0.999701, 0.0244322],
  "ImageOrientationText": "Tra>Cor(1.4)",
  "ImageType": [
    "ORIGINAL",
    "PRIMARY",
    "M",
    "ND",
    "NORM",
    "MOCO",
    "MOSAIC"
],
  "ImagingFrequency": 123.182,
  "InPlanePhaseEncodingDirectionDICOM": "COL",
  "InstitutionAddress": "First Avenue 660,New York,NYC,US,10016",
  "InstitutionName": "NYU LANGONE CBI",
  "InstitutionalDepartmentName": "Department",
  "MRAcquisitionType": "2D",
  "MagneticFieldStrength": 3,
  "Manufacturer": "Siemens",
  "ManufacturersModelName": "Skyra",
  "MatrixCoilMode": "SENSE",
  "Modality": "MR",
  "NonlinearGradientCorrection": false,
  "PartialFourier": 1,
  "PatientPosition": "HFS",
  "PercentPhaseFOV": 100,
  "PercentSampling": 100,
  "PhaseEncodingDirection": "j-",
  "PhaseEncodingSteps": 72,
  "PhaseResolution": 1,
  "PixelBandwidth": 1985,
  "ProcedureStepDescription": "MRI BRAIN WITHOUT IV CONTRAST",
  "ProtocolName": "REST_2_MoCo",
  "PulseSequenceDetails": "%SiemensSeq%\\ep2d_bold",
  "ReceiveCoilActiveElements": "HE1-4",
  "ReceiveCoilName": "HeadNeck_20",
  "ReconMatrixPE": 72,
  "RepetitionTime": 2.5,
  "SAR": 0.112928,
  "ScanOptions": "FS",
  "ScanningSequence": "EP",
  "SequenceName": "*epfid2d1_72",
  "SequenceVariant": "SK",
  "SeriesDescription": "MoCoSeries",
  "SeriesNumber": 12,
  "ShimSetting": [-902, -6973, 5029, 263, -174, -367, 275, -103],
  "SliceThickness": 3,
  "SliceTiming": [1.24, 0, 1.305, 0.065, 1.3725, 0.1325, 1.4375, 0.1975, 1.5025, 0.2625, 1.5675, 0.3275, 1.6325, 0.3925, 1.6975, 0.4575, 1.7625, 0.5225, 1.8275, 0.5875, 1.8925, 0.6525, 1.9575, 0.72, 2.025, 0.785, 2.09, 0.85, 2.155, 0.915, 2.22, 0.98, 2.285, 1.045, 2.35, 1.11, 2.415, 1.175],
  "SoftwareVersions": "syngo MR E11",
  "SpacingBetweenSlices": 3,
  "StationName": "MRC45219",
  "TaskName": "rest",
  "TotalReadoutTime": 0.0404708,
  "TxRefAmp": 423.464,
  "dcmmeta_affine": [
    [-3.0, 0.0, 0.0, 108.0],
    [0.0, 2.9991044998168945, 0.07329653203487396, -110.83683776855469],
    [0.0, -0.07329653203487396, 2.9991044998168945, -48.27790832519531],
    [0.0, 0.0, 0.0, 1.0]
],
  "dcmmeta_reorient_transform": [
    [0.0, -1.0, 0.0, 71.0],
    [1.0, 0.0, 0.0, 0.0],
    [0.0, 0.0, 1.0, 0.0],
    [0.0, 0.0, 0.0, 1.0]
],
  "dcmmeta_shape": [72, 72, 38, 122],
  "dcmmeta_slice_dim": 2,
  "dcmmeta_version": 0.6,
  "global": {
    "const": {
      "AcquisitionMatrix": [72, 0, 0, 72],
      "AngioFlag": "N",
      "BitsAllocated": 16,
      "BitsStored": 12,
      "BodyPartExamined": "BRAIN",
      "Columns": 504,
      "CountryOfResidence": "United States of America [1]",
      "EchoNumbers": 1,
      "EchoTime": 30.0,
      "EchoTrainLength": 72,
      "FlipAngle": 80.0,
      "HighBit": 11,
      "ImageOrientationPatient": [1.0, 0.0, 0.0, 0.0, 0.99970148981559, 0.02443217674489],
      "ImagePositionPatient": [-756.0, -749.90614125725, -69.314014040768],
      "ImageType": [
        "ORIGINAL",
        "PRIMARY",
        "M",
        "ND",
        "NORM",
        "MOCO",
        "MOSAIC"
],
      "ImagedNucleus": "1H",
      "ImagingFrequency": 123.182004,
      "InPlanePhaseEncodingDirection": "COL",
      "MRAcquisitionType": "2D",
      "MagneticFieldStrength": 3.0,
      "Manufacturer": "SIEMENS",
      "ManufacturerModelName": "Skyra",
      "Modality": "MR",
      "NumberOfAverages": 1.0,
      "NumberOfPhaseEncodingSteps": 72,
      "PercentPhaseFieldOfView": 100.0,
      "PercentSampling": 100.0,
      "PerformedProcedureStepStartTime": "160557.472000",
      "PhotometricInterpretation": "MONOCHROME2",
      "PixelBandwidth": 1985.0,
      "PixelRepresentation": 0,
      "PixelSpacing": [3.0, 3.0],
      "PregnancyStatus": 4,
      "ProcedureCodeSequence": [
        {
          "CodeMeaning": "MRI BRAIN WITHOUT IV CONTRAST",
          "CodeValue": "IMG269",
          "CodingSchemeDesignator": "L"
        }
],
      "ProtocolName": "REST_2",
      "RepetitionTime": 2500.0,
      "RequestAttributesSequence": [
        {
          "RequestedProcedureID": "125739968",
          "ScheduledProcedureStepDescription": "MRI BRAIN WITHOUT IV CONTRAST",
          "ScheduledProcedureStepID": "E9173253",
          "ScheduledProtocolCodeSequence": [
            {
              "CodeMeaning": "MRI BRAIN WITHOUT IV CONTRAST",
              "CodeValue": "651061",
              "CodingSchemeDesignator": "L"
            }
]
        }
],
      "RequestedProcedureCodeSequence": [
        {
          "CodeMeaning": "MRI BRAIN WITHOUT IV CONTRAST",
          "CodeValue": "IMG269",
          "CodingSchemeDesignator": "L"
        }
],
      "Rows": 504,
      "SAR": 0.11292846521952,
      "SamplesPerPixel": 1,
      "ScanOptions": "FS",
      "ScanningSequence": "EP",
      "SequenceName": "*epfid2d1_72",
      "SequenceVariant": "SK",
      "SeriesDescription": "MoCoSeries",
      "SeriesNumber": 12,
      "SeriesTime": "163010.628000",
      "SliceLocation": -50.971483716378,
      "SliceThickness": 3.0,
      "SmallestImagePixelValue": 0,
      "SmokingStatus": "UNKNOWN",
      "SoftwareVersions": "syngo MR E11",
      "SpacingBetweenSlices": 3.000000004687,
      "SpecificCharacterSet": "ISO_IR 100",
      "StudyID": "125739968",
      "StudyTime": "160557.311000",
      "TransmitCoilName": "Body",
      "VariableFlipAngleFlag": "N",
      "WindowCenterWidthExplanation": "Algo1",
      "dBdt": 0.0},
    "slices": {}
  },
  "time": {
    "samples": {
      "AcquisitionNumber": [1, 2, 3, 4, 5, 6, 7, 8, 9, 10, 11, 12, 13, 14, 15, 16, 17, 18, 19, 20, 21, 22, 23, 24, 25, 26, 27, 28, 29, 30, 31, 32, 33, 34, 35, 36, 37, 38, 39, 40, 41, 42, 43, 44, 45, 46, 47, 48, 49, 50, 51, 52, 53, 54, 55, 56, 57, 58, 59, 60, 61, 62, 63, 64, 65, 66, 67, 68, 69, 70, 71, 72, 73, 74, 75, 76, 77, 78, 79, 80, 81, 82, 83, 84, 85, 86, 87, 88, 89, 90, 91, 92, 93, 94, 95, 96, 97, 98, 99, 100, 101, 102, 103, 104, 105, 106, 107, 108, 109, 110, 111, 112, 113, 114, 115, 116, 117, 118, 119, 120, 121, 122],
      "AcquisitionTime": ["162917.197500", "162919.697500", "162922.197500", "162924.697500", "162927.197500", "162929.697500", "162932.197500", "162934.697500", "162937.197500", "162939.697500", "162942.197500", "162944.697500", "162947.197500", "162949.697500", "162952.197500", "162954.697500", "162957.197500", "162959.697500", "163002.197500", "163004.697500", "163007.197500", "163009.697500", "163012.197500", "163014.697500", "163017.197500", "163019.697500", "163022.197500", "163024.697500", "163027.197500", "163029.697500", "163032.197500", "163034.697500", "163037.197500", "163039.697500", "163042.197500", "163044.697500", "163047.197500", "163049.697500", "163052.197500", "163054.697500", "163057.197500", "163059.697500", "163102.197500", "163104.697500", "163107.197500", "163109.697500", "163112.197500", "163114.697500", "163117.197500", "163119.697500", "163122.197500", "163124.697500", "163127.197500", "163129.697500", "163132.197500", "163134.697500", "163137.197500", "163139.697500", "163142.197500", "163144.697500", "163147.197500", "163149.697500", "163152.197500", "163154.697500", "163157.197500", "163159.697500", "163202.197500", "163204.697500", "163207.197500", "163209.697500", "163212.197500", "163214.697500", "163217.197500", "163219.697500", "163222.197500", "163224.697500", "163227.197500", "163229.697500", "163232.197500", "163234.697500", "163237.197500", "163239.697500", "163242.197500", "163244.697500", "163247.197500", "163249.697500", "163252.197500", "163254.697500", "163257.197500", "163259.697500", "163302.197500", "163304.697500", "163307.197500", "163309.697500", "163312.197500", "163314.697500", "163317.197500", "163319.697500", "163322.197500", "163324.697500", "163327.197500", "163329.697500", "163332.197500", "163334.697500", "163337.197500", "163339.697500", "163342.197500", "163344.697500", "163347.197500", "163349.697500", "163352.197500", "163354.697500", "163357.197500", "163359.697500", "163402.197500", "163404.697500", "163407.197500", "163409.697500", "163412.197500", "163414.697500", "163417.197500", "163419.697500"],
      "ContentTime": ["163010.630000", "163010.634000", "163010.636000", "163010.642000", "163010.645000", "163010.648000", "163010.651000", "163010.654000", "163010.656000", "163010.659000", "163010.662000", "163010.665000", "163010.667000", "163010.670000", "163010.673000", "163010.676000", "163010.678000", "163010.681000", "163010.684000", "163010.686000", "163010.689000", "163110.617000", "163110.620000", "163110.622000", "163110.625000", "163110.628000", "163110.631000", "163110.634000", "163110.636000", "163110.639000", "163110.642000", "163110.645000", "163110.647000", "163110.650000", "163110.653000", "163110.656000", "163110.658000", "163110.661000", "163110.664000", "163110.667000", "163110.669000", "163110.672000", "163110.675000", "163110.677000", "163110.680000", "163210.617000", "163210.620000", "163210.622000", "163210.625000", "163210.628000", "163210.631000", "163210.633000", "163210.636000", "163210.639000", "163210.647000", "163210.649000", "163210.652000", "163210.655000", "163210.658000", "163210.661000", "163210.663000", "163210.666000", "163210.669000", "163210.672000", "163210.674000", "163210.677000", "163210.680000", "163210.682000", "163210.685000", "163310.609000", "163310.612000", "163310.615000", "163310.618000", "163310.621000", "163310.623000", "163310.626000", "163310.629000", "163310.632000", "163310.634000", "163310.637000", "163310.640000", "163310.643000", "163310.645000", "163310.648000", "163310.651000", "163310.654000", "163310.656000", "163310.659000", "163310.662000", "163310.665000", "163310.667000", "163310.670000", "163310.673000", "163410.613000", "163410.616000", "163410.619000", "163410.622000", "163410.624000", "163410.627000", "163410.630000", "163410.633000", "163410.636000", "163410.638000", "163410.641000", "163410.644000", "163410.647000", "163410.649000", "163410.652000", "163410.655000", "163410.658000", "163410.660000", "163410.666000", "163410.669000", "163410.672000", "163410.674000", "163410.677000", "163410.680000", "163421.629000", "163421.632000", "163421.636000", "163421.641000", "163421.645000"],
      "InstanceCreationTime": ["163010.630000", "163010.634000", "163010.636000", "163010.642000", "163010.645000", "163010.648000", "163010.651000", "163010.654000", "163010.656000", "163010.659000", "163010.662000", "163010.665000", "163010.667000", "163010.670000", "163010.673000", "163010.676000", "163010.678000", "163010.681000", "163010.684000", "163010.686000", "163010.689000", "163110.617000", "163110.620000", "163110.622000", "163110.625000", "163110.628000", "163110.631000", "163110.634000", "163110.636000", "163110.639000", "163110.642000", "163110.645000", "163110.647000", "163110.650000", "163110.653000", "163110.656000", "163110.658000", "163110.661000", "163110.664000", "163110.667000", "163110.669000", "163110.672000", "163110.675000", "163110.677000", "163110.680000", "163210.617000", "163210.620000", "163210.622000", "163210.625000", "163210.628000", "163210.631000", "163210.633000", "163210.636000", "163210.639000", "163210.647000", "163210.649000", "163210.652000", "163210.655000", "163210.658000", "163210.661000", "163210.663000", "163210.666000", "163210.669000", "163210.672000", "163210.674000", "163210.677000", "163210.680000", "163210.682000", "163210.685000", "163310.609000", "163310.612000", "163310.615000", "163310.618000", "163310.621000", "163310.623000", "163310.626000", "163310.629000", "163310.632000", "163310.634000", "163310.637000", "163310.640000", "163310.643000", "163310.645000", "163310.648000", "163310.651000", "163310.654000", "163310.656000", "163310.659000", "163310.662000", "163310.665000", "163310.667000", "163310.670000", "163310.673000", "163410.613000", "163410.616000", "163410.619000", "163410.622000", "163410.624000", "163410.627000", "163410.630000", "163410.633000", "163410.636000", "163410.638000", "163410.641000", "163410.644000", "163410.647000", "163410.649000", "163410.652000", "163410.655000", "163410.658000", "163410.660000", "163410.666000", "163410.669000", "163410.672000", "163410.674000", "163410.677000", "163410.680000", "163421.629000", "163421.632000", "163421.636000", "163421.641000", "163421.645000"],
      "InstanceNumber": [1, 2, 3, 4, 5, 6, 7, 8, 9, 10, 11, 12, 13, 14, 15, 16, 17, 18, 19, 20, 21, 22, 23, 24, 25, 26, 27, 28, 29, 30, 31, 32, 33, 34, 35, 36, 37, 38, 39, 40, 41, 42, 43, 44, 45, 46, 47, 48, 49, 50, 51, 52, 53, 54, 55, 56, 57, 58, 59, 60, 61, 62, 63, 64, 65, 66, 67, 68, 69, 70, 71, 72, 73, 74, 75, 76, 77, 78, 79, 80, 81, 82, 83, 84, 85, 86, 87, 88, 89, 90, 91, 92, 93, 94, 95, 96, 97, 98, 99, 100, 101, 102, 103, 104, 105, 106, 107, 108, 109, 110, 111, 112, 113, 114, 115, 116, 117, 118, 119, 120, 121, 122],
      "LargestImagePixelValue": [1491, 1811, 1857, 1860, 1649, 1986, 1724, 2070, 1626, 1500, 1788, 1688, 1829, 1943, 1615, 1940, 1763, 1714, 1725, 1799, 1608, 1669, 1968, 1540, 1954, 1929, 1505, 1624, 1995, 1533, 1627, 1774, 1505, 1586, 1754, 1478, 1743, 1917, 1648, 1890, 1890, 1845, 2111, 1864, 1521, 1766, 1737, 1497, 1764, 1497, 1469, 1582, 1628, 1709, 1544, 1775, 1894, 1609, 1427, 1427, 1654, 1556, 1476, 1423, 1570, 1547, 1504, 1538, 1440, 1477, 1731, 1463, 1486, 1452, 1578, 1826, 1424, 1432, 1590, 1454, 1535, 1704, 1771, 1461, 1445, 1572, 1645, 1429, 1706, 1582, 1601, 1433, 1464, 1455, 1450, 1455, 1500, 1579, 1516, 1493, 1617, 1730, 1588, 1471, 1733, 1456, 1512, 1537, 1604, 1446, 1541, 1497, 1511, 1538, 1574, 1430, 1503, 1535, 1549, 1519, 1644, 1484],
      "WindowCenter": [615.0, 616.0, 616.0, 616.0, 614.0, 617.0, 615.0, 617.0, 614.0, 613.0, 615.0, 614.0, 615.0, 616.0, 614.0, 615.0, 614.0, 614.0, 614.0, 615.0, 613.0, 614.0, 616.0, 613.0, 615.0, 615.0, 613.0, 614.0, 614.0, 612.0, 613.0, 614.0, 612.0, 613.0, 615.0, 614.0, 616.0, 617.0, 615.0, 616.0, 616.0, 611.0, 616.0, 614.0, 612.0, 614.0, 614.0, 612.0, 614.0, 613.0, 613.0, 613.0, 613.0, 613.0, 612.0, 614.0, 614.0, 612.0, 611.0, 612.0, 614.0, 612.0, 611.0, 611.0, 613.0, 613.0, 612.0, 612.0, 613.0, 613.0, 614.0, 612.0, 613.0, 613.0, 613.0, 614.0, 612.0, 612.0, 614.0, 613.0, 613.0, 614.0, 614.0, 612.0, 612.0, 612.0, 613.0, 612.0, 613.0, 612.0, 612.0, 611.0, 612.0, 612.0, 612.0, 612.0, 613.0, 613.0, 612.0, 612.0, 612.0, 613.0, 612.0, 611.0, 613.0, 612.0, 612.0, 612.0, 612.0, 611.0, 612.0, 613.0, 612.0, 612.0, 612.0, 611.0, 612.0, 612.0, 612.0, 612.0, 614.0, 613.0],
      "WindowWidth": [1297.0, 1297.0, 1296.0, 1296.0, 1293.0, 1298.0, 1295.0, 1297.0, 1292.0, 1291.0, 1295.0, 1293.0, 1294.0, 1296.0, 1292.0, 1295.0, 1293.0, 1292.0, 1293.0, 1294.0, 1292.0, 1292.0, 1296.0, 1291.0, 1294.0, 1294.0, 1290.0, 1291.0, 1293.0, 1288.0, 1289.0, 1292.0, 1289.0, 1291.0, 1295.0, 1292.0, 1296.0, 1297.0, 1294.0, 1296.0, 1296.0, 1285.0, 1297.0, 1293.0, 1289.0, 1291.0, 1293.0, 1289.0, 1293.0, 1290.0, 1290.0, 1291.0, 1291.0, 1291.0, 1289.0, 1292.0, 1292.0, 1288.0, 1287.0, 1288.0, 1292.0, 1288.0, 1287.0, 1287.0, 1290.0, 1290.0, 1288.0, 1289.0, 1290.0, 1290.0, 1292.0, 1289.0, 1292.0, 1291.0, 1290.0, 1292.0, 1288.0, 1289.0, 1292.0, 1291.0, 1291.0, 1292.0, 1292.0, 1289.0, 1288.0, 1289.0, 1291.0, 1288.0, 1290.0, 1288.0, 1288.0, 1287.0, 1287.0, 1288.0, 1289.0, 1290.0, 1290.0, 1290.0, 1289.0, 1289.0, 1289.0, 1290.0, 1289.0, 1287.0, 1290.0, 1288.0, 1288.0, 1289.0, 1289.0, 1287.0, 1288.0, 1290.0, 1289.0, 1289.0, 1289.0, 1287.0, 1288.0, 1287.0, 1288.0, 1289.0, 1292.0, 1290.0]
    },
    "slices": {}
  }
}