{
  "AcquisitionMatrixPE": 72,
  "AcquisitionNumber": 1,
  "AcquisitionTime": "16:08:39.312500",
  "BaseResolution": 72,
  "BodyPartExamined": "BRAIN",
  "CoilCombinationMethod": "Sum of Squares",
  "ConsistencyInfo": "N4_VE11C_LATEST_20160120",
  "ConversionSoftware": "dcm2niix",
  "ConversionSoftwareVersion": "v1.0.20220720",
  "DeviceSerialNumber": "45219",
  "DwellTime": 2.39e-05,
  "EchoNumber": 2,
  "EchoTime": 0.00738,
  "EchoTime1": 0.00492,
  "EchoTime2": 0.00738,
  "FlipAngle": 60,
  "HeudiconvVersion": "1.1.6",
  "ImageOrientationPatientDICOM": [1, 4.895e-12, 1.2e-13, -4.897e-12, 0.999701, 0.0244322],
  "ImageOrientationText": "Tra>Cor(1.4)",
  "ImageType": [
    "ORIGINAL",
    "PRIMARY",
    "P",
    "ND",
    "PHASE"
],
  "ImagingFrequency": 123.182,
  "InPlanePhaseEncodingDirectionDICOM": "ROW",
  "InstitutionAddress": "First Avenue 660,New York,NYC,US,10016",
  "InstitutionName": "NYU LANGONE CBI",
  "InstitutionalDepartmentName": "Department",
  "MRAcquisitionType": "2D",
  "MagneticFieldStrength": 3,
  "Manufacturer": "Siemens",
  "ManufacturersModelName": "Skyra",
  "MatrixCoilMode": "SENSE",
  "Modality": "MR",
  "NonlinearGradientCorrection": false,
  "PartialFourier": 1,
  "PatientPosition": "HFS",
  "PercentPhaseFOV": 100,
  "PercentSampling": 100,
  "PhaseEncodingDirection": "i",
  "PhaseEncodingSteps": 72,
  "PhaseResolution": 1,
  "PixelBandwidth": 290,
  "ProcedureStepDescription": "MRI BRAIN WITHOUT IV CONTRAST",
  "ProtocolName": "gre_fm_bold",
  "PulseSequenceDetails": "%SiemensSeq%\\gre_field_mapping",
  "ReceiveCoilActiveElements": "HE1-4",
  "ReceiveCoilName": "HeadNeck_20",
  "ReconMatrixPE": 72,
  "RepetitionTime": 0.444,
  "SAR": 0.163842,
  "ScanningSequence": "GR",
  "SequenceName": "*fm2d2r",
  "SequenceVariant": "SP",
  "SeriesDescription": "gre_fm_bold",
  "SeriesNumber": 4,
  "ShimSetting": [-902, -6973, 5029, 263, -174, -367, 275, -103],
  "SliceThickness": 3,
  "SliceTiming": [0.21875, 0, 0.23438, 0.01562, 0.23438, 0.01562, 0.25, 0.03125, 0.26562, 0.04688, 0.28125, 0.0625, 0.28125, 0.0625, 0.29688, 0.07812, 0.3125, 0.09375, 0.32812, 0.09375, 0.34375, 0.10938, 0.34375, 0.125, 0.35938, 0.14062, 0.375, 0.15625, 0.375, 0.15625, 0.39062, 0.17188, 0.40625, 0.1875, 0.42188, 0.20312, 0.42188, 0.20312],
  "SoftwareVersions": "syngo MR E11",
  "SpacingBetweenSlices": 3,
  "StationName": "MRC45219",
  "TxRefAmp": 423.464,
  "dcmmeta_affine": [
    [-3.0, -1.4691000152500244e-11, 0.0, 108.0],
    [-1.468499974399684e-11, 2.9991044998168945, 0.07329654693603516, -110.83684539794922],
    [3.6000000723512837e-13, -0.07329653203487396, 2.999103546142578, -48.27787399291992],
    [0.0, 0.0, 0.0, 1.0]
],
  "dcmmeta_reorient_transform": [
    [0.0, -1.0, 0.0, 71.0],
    [1.0, 0.0, 0.0, 0.0],
    [0.0, 0.0, -1.0, 37.0],
    [0.0, 0.0, 0.0, 1.0]
],
  "dcmmeta_shape": [72, 72, 38],
  "dcmmeta_slice_dim": 2,
  "dcmmeta_version": 0.6,
  "global": {
    "const": {
      "AcquisitionMatrix": [0, 72, 72, 0],
      "AcquisitionNumber": 1,
      "AngioFlag": "N",
      "BitsAllocated": 16,
      "BitsStored": 12,
      "BodyPartExamined": "BRAIN",
      "Columns": 72,
      "CountryOfResidence": "United States of America [1]",
      "EchoNumbers": 2,
      "EchoTime": 7.38,
      "EchoTrainLength": 0,
      "FlipAngle": 60.0,
      "HighBit": 11,
      "ImageOrientationPatient": [1.0, 4.895e-12, 1.2e-13, -4.897e-12, 0.99970148977347, 0.02443217846826],
      "ImageType": [
        "ORIGINAL",
        "PRIMARY",
        "P",
        "ND"
],
      "ImagedNucleus": "1H",
      "ImagingFrequency": 123.181918,
      "InPlanePhaseEncodingDirection": "ROW",
      "MRAcquisitionType": "2D",
      "MagneticFieldStrength": 3.0,
      "Manufacturer": "SIEMENS",
      "ManufacturerModelName": "Skyra",
      "Modality": "MR",
      "NumberOfAverages": 1.0,
      "NumberOfPhaseEncodingSteps": 72,
      "PercentPhaseFieldOfView": 100.0,
      "PercentSampling": 100.0,
      "PerformedProcedureStepStartTime": "160557.472000",
      "PhotometricInterpretation": "MONOCHROME2",
      "PixelBandwidth": 290.0,
      "PixelRepresentation": 0,
      "PixelSpacing": [3.0, 3.0],
      "PregnancyStatus": 4,
      "ProcedureCodeSequence": [
        {
          "CodeMeaning": "MRI BRAIN WITHOUT IV CONTRAST",
          "CodeValue": "IMG269",
          "CodingSchemeDesignator": "L"
        }
],
      "ProtocolName": "gre_fm_bold",
      "RepetitionTime": 444.0,
      "RequestAttributesSequence": [
        {
          "RequestedProcedureID": "125739968",
          "ScheduledProcedureStepDescription": "MRI BRAIN WITHOUT IV CONTRAST",
          "ScheduledProcedureStepID": "E9173253",
          "ScheduledProtocolCodeSequence": [
            {
              "CodeMeaning": "MRI BRAIN WITHOUT IV CONTRAST",
              "CodeValue": "651061",
              "CodingSchemeDesignator": "L"
            }
]
        }
],
      "RequestedProcedureCodeSequence": [
        {
          "CodeMeaning": "MRI BRAIN WITHOUT IV CONTRAST",
          "CodeValue": "IMG269",
          "CodingSchemeDesignator": "L"
        }
],
      "RescaleIntercept": -4096.0,
      "RescaleSlope": 2.0,
      "RescaleType": "US",
      "Rows": 72,
      "SAR": 0.16384233618423,
      "SamplesPerPixel": 1,
      "ScanningSequence": "GR",
      "SequenceName": "*fm2d2r",
      "SequenceVariant": "SP",
      "SeriesDescription": "gre_fm_bold",
      "SeriesNumber": 4,
      "SeriesTime": "160943.486000",
      "SliceThickness": 3.0,
      "SmokingStatus": "UNKNOWN",
      "SoftwareVersions": "syngo MR E11",
      "SpacingBetweenSlices": 3.0,
      "SpecificCharacterSet": "ISO_IR 100",
      "StudyID": "125739968",
      "StudyTime": "160557.311000",
      "TransmitCoilName": "Body",
      "VariableFlipAngleFlag": "N",
      "WindowCenterWidthExplanation": "Algo1",
      "dBdt": 0.0},
    "slices": {
      "AcquisitionTime": ["160839.312500", "160839.090000", "160839.325000", "160839.102500", "160839.335000", "160839.115000", "160839.347500", "160839.125000", "160839.360000", "160839.137500", "160839.370000", "160839.150000", "160839.382500", "160839.160000", "160839.395000", "160839.172500", "160839.405000", "160839.185000", "160839.417500", "160839.195000", "160839.430000", "160839.207500", "160839.440000", "160839.220000", "160839.452500", "160839.230000", "160839.465000", "160839.242500", "160839.475000", "160839.255000", "160839.487500", "160839.265000", "160839.500000", "160839.277500", "160839.510000", "160839.290000", "160839.522500", "160839.300000"],
      "ContentTime": ["160943.536000", "160943.488000", "160943.539000", "160943.492000", "160943.541000", "160943.497000", "160943.543000", "160943.499000", "160943.547000", "160943.501000", "160943.549000", "160943.504000", "160943.552000", "160943.506000", "160943.554000", "160943.508000", "160943.557000", "160943.510000", "160943.559000", "160943.512000", "160943.562000", "160943.515000", "160943.573000", "160943.517000", "160943.577000", "160943.520000", "160943.579000", "160943.522000", "160943.582000", "160943.524000", "160943.602000", "160943.526000", "160943.604000", "160943.529000", "160943.607000", "160943.531000", "160943.610000", "160943.533000"],
      "CsaImage.ICE_Dims": [
        "X_2_1_1_1_1_1_20_1_1_1_1_2612",
        "X_2_1_1_1_1_1_1_1_1_2_1_2612",
        "X_2_1_1_1_1_1_21_1_1_3_1_2612",
        "X_2_1_1_1_1_1_2_1_1_4_1_2612",
        "X_2_1_1_1_1_1_22_1_1_5_1_2612",
        "X_2_1_1_1_1_1_3_1_1_6_1_2612",
        "X_2_1_1_1_1_1_23_1_1_7_1_2612",
        "X_2_1_1_1_1_1_4_1_1_8_1_2612",
        "X_2_1_1_1_1_1_24_1_1_9_1_2612",
        "X_2_1_1_1_1_1_5_1_1_10_1_2612",
        "X_2_1_1_1_1_1_25_1_1_11_1_2612",
        "X_2_1_1_1_1_1_6_1_1_12_1_2612",
        "X_2_1_1_1_1_1_26_1_1_13_1_2612",
        "X_2_1_1_1_1_1_7_1_1_14_1_2612",
        "X_2_1_1_1_1_1_27_1_1_15_1_2612",
        "X_2_1_1_1_1_1_8_1_1_16_1_2612",
        "X_2_1_1_1_1_1_28_1_1_17_1_2612",
        "X_2_1_1_1_1_1_9_1_1_18_1_2612",
        "X_2_1_1_1_1_1_29_1_1_19_1_2612",
        "X_2_1_1_1_1_1_10_1_1_20_1_2612",
        "X_2_1_1_1_1_1_30_1_1_21_1_2612",
        "X_2_1_1_1_1_1_11_1_1_22_1_2612",
        "X_2_1_1_1_1_1_31_1_1_23_1_2612",
        "X_2_1_1_1_1_1_12_1_1_24_1_2612",
        "X_2_1_1_1_1_1_32_1_1_25_1_2612",
        "X_2_1_1_1_1_1_13_1_1_26_1_2612",
        "X_2_1_1_1_1_1_33_1_1_27_1_2612",
        "X_2_1_1_1_1_1_14_1_1_28_1_2612",
        "X_2_1_1_1_1_1_34_1_1_29_1_2612",
        "X_2_1_1_1_1_1_15_1_1_30_1_2612",
        "X_2_1_1_1_1_1_35_1_1_31_1_2612",
        "X_2_1_1_1_1_1_16_1_1_32_1_2612",
        "X_2_1_1_1_1_1_36_1_1_33_1_2612",
        "X_2_1_1_1_1_1_17_1_1_34_1_2612",
        "X_2_1_1_1_1_1_37_1_1_35_1_2612",
        "X_2_1_1_1_1_1_18_1_1_36_1_2612",
        "X_2_1_1_1_1_1_38_1_1_37_1_2612",
        "X_2_1_1_1_1_1_19_1_1_38_1_2612"
],
      "CsaImage.ProtocolSliceNumber": [0, 1, 2, 3, 4, 5, 6, 7, 8, 9, 10, 11, 12, 13, 14, 15, 16, 17, 18, 19, 20, 21, 22, 23, 24, 25, 26, 27, 28, 29, 30, 31, 32, 33, 34, 35, 36, 37],
      "CsaImage.SliceMeasurementDuration": [63047.5, 63047.5, 63047.5, 63047.5, 63050.0, 63047.5, 63047.5, 63047.5, 63047.5, 63047.5, 63050.0, 63047.5, 63047.5, 63047.5, 63047.5, 63047.5, 63050.0, 63047.5, 63047.5, 63047.5, 63047.5, 63047.5, 63050.0, 63047.5, 63047.5, 63047.5, 63047.5, 63047.5, 63050.0, 63047.5, 63047.5, 63047.5, 63047.5, 63047.5, 63050.0, 63047.5, 63047.5, 63050.0],
      "CsaImage.SlicePosition_PCS": [
        [-108.0, -102.09957585, -53.4819637],
        [-108.0, -102.1728724, -50.48286015],
        [-108.0, -102.24616895, -47.48375279],
        [-108.0, -102.31946549, -44.48464924],
        [-108.0, -102.39276204, -41.4855457],
        [-108.0, -102.46605859, -38.48644215],
        [-108.0, -102.53935513, -35.48733479],
        [-108.0, -102.61265168, -32.48823124],
        [-108.0, -102.68594823, -29.4891277],
        [-108.0, -102.75924478, -26.49002224],
        [-108.0, -102.83254132, -23.4909187],
        [-108.0, -102.90583787, -20.49181324],
        [-108.0, -102.97913442, -17.4927097],
        [-108.0, -103.05243096, -14.4936052],
        [-108.0, -103.12572751, -11.4945007],
        [-108.0, -103.19902358, -8.4953962],
        [-108.0, -103.27232013, -5.4962917],
        [-108.0, -103.34561667, -2.4971872],
        [-108.0, -103.41891322, 0.5019173],
        [-108.0, -103.49220977, 3.5010218],
        [-108.0, -103.56550631, 6.5001263],
        [-108.0, -103.63880286, 9.4992308],
        [-108.0, -103.71209941, 12.4983353],
        [-108.0, -103.78539596, 15.49743885],
        [-108.0, -103.8586925, 18.4965443],
        [-108.0, -103.93198905, 21.49564785],
        [-108.0, -104.0052856, 24.4947533],
        [-108.0, -104.07858214, 27.49385685],
        [-108.0, -104.15187869, 30.4929623],
        [-108.0, -104.22517524, 33.49206584],
        [-108.0, -104.29847178, 36.49116939],
        [-108.0, -104.37176833, 39.49027675],
        [-108.0, -104.44506488, 42.4893803],
        [-108.0, -104.51836142, 45.48848384],
        [-108.0, -104.59165797, 48.48758739],
        [-108.0, -104.66495452, 51.48669475],
        [-108.0, -104.73825107, 54.4857983],
        [-108.0, -104.81154761, 57.48490184]
],
      "CsaImage.TimeAfterStart": [0.6675, 0.445, 0.68, 0.4575, 0.6925, 0.47, 0.7025, 0.48, 0.715, 0.4925, 0.7275, 0.505, 0.7375, 0.515, 0.75, 0.5275, 0.7625, 0.54, 0.7725, 0.55, 0.785, 0.5625, 0.7975, 0.575, 0.8075, 0.585, 0.82, 0.5975, 0.8325, 0.61, 0.8425, 0.62, 0.855, 0.6325, 0.8675, 0.645, 0.8775, 0.6575],
      "ImagePositionPatient": [
        [-107.99999999947, -102.09957585273, -53.481963696216],
        [-107.99999999947, -102.17287239966, -50.482860150073],
        [-107.99999999947, -102.2461689466, -47.483752789233],
        [-107.99999999947, -102.31946549354, -44.484649243091],
        [-107.99999999947, -102.39276204047, -41.485545696948],
        [-107.99999999947, -102.46605858741, -38.486442150806],
        [-107.99999999947, -102.53935513434, -35.487334789966],
        [-107.99999999947, -102.61265168128, -32.488231243823],
        [-107.99999999947, -102.68594822822, -29.489127697681],
        [-107.99999999947, -102.75924477515, -26.49002224419],
        [-107.99999999947, -102.83254132209, -23.490918698047],
        [-107.99999999947, -102.90583786902, -20.491813244556],
        [-107.99999999947, -102.97913441596, -17.492709698413],
        [-107.99999999947, -103.0524309629, -14.493605198596],
        [-107.99999999947, -103.12572750983, -11.494500698779],
        [-107.99999999947, -103.19902357993, -8.4953961989625],
        [-107.99999999947, -103.27232012687, -5.4962916991456],
        [-107.99999999947, -103.3456166738, -2.4971871993287],
        [-107.99999999947, -103.41891322074, 0.5019173004882],
        [-107.99999999947, -103.49220976768, 3.5010218003051],
        [-107.99999999947, -103.56550631461, 6.500126300122],
        [-107.99999999947, -103.63880286155, 9.4992307999389],
        [-107.99999999947, -103.71209940848, 12.498335299756],
        [-107.99999999947, -103.78539595542, 15.497438845898],
        [-107.99999999947, -103.85869250236, 18.49654429939],
        [-107.99999999947, -103.93198904929, 21.495647845532],
        [-107.99999999947, -104.00528559623, 24.494753299023],
        [-107.99999999947, -104.07858214316, 27.493856845166],
        [-107.99999999947, -104.1518786901, 30.492962298657],
        [-107.99999999947, -104.22517523704, 33.4920658448],
        [-107.99999999947, -104.29847178397, 36.491169390942],
        [-107.99999999947, -104.37176833091, 39.490276751782],
        [-107.99999999947, -104.44506487784, 42.489380297925],
        [-107.99999999947, -104.51836142478, 45.488483844067],
        [-107.99999999947, -104.59165797172, 48.48758739021],
        [-107.99999999947, -104.66495451865, 51.48669475105],
        [-107.99999999947, -104.73825106559, 54.485798297192],
        [-107.99999999947, -104.81154761252, 57.484901843335]
],
      "InstanceCreationTime": ["160943.536000", "160943.488000", "160943.539000", "160943.492000", "160943.541000", "160943.497000", "160943.543000", "160943.499000", "160943.547000", "160943.501000", "160943.549000", "160943.504000", "160943.552000", "160943.506000", "160943.554000", "160943.508000", "160943.557000", "160943.510000", "160943.559000", "160943.512000", "160943.562000", "160943.515000", "160943.573000", "160943.517000", "160943.577000", "160943.520000", "160943.579000", "160943.522000", "160943.582000", "160943.524000", "160943.602000", "160943.526000", "160943.604000", "160943.529000", "160943.607000", "160943.531000", "160943.610000", "160943.533000"],
      "InstanceNumber": [1, 2, 3, 4, 5, 6, 7, 8, 9, 10, 11, 12, 13, 14, 15, 16, 17, 18, 19, 20, 21, 22, 23, 24, 25, 26, 27, 28, 29, 30, 31, 32, 33, 34, 35, 36, 37, 38],
      "LargestImagePixelValue": [4093, 4093, 4092, 4093, 4095, 4088, 4091, 4094, 4084, 4086, 4089, 4088, 4089, 4093, 4090, 4091, 4081, 4081, 4092, 4090, 4083, 4073, 4070, 4089, 4094, 4085, 4089, 4090, 4086, 4086, 4089, 4088, 4093, 4095, 4093, 4093, 4090, 4094],
      "SliceLocation": [-50.97148372435, -47.971484646971, -44.971481756033, -41.971482678653, -38.971483601274, -35.971484523894, -32.971481632956, -29.971482555577, -26.971483478197, -23.971482494038, -20.971483416659, -17.9714824325, -14.971483355121, -11.971483324352, -8.9714832935825, -5.9714832744636, -2.9714832436944, 0.02851678707467, 3.0285168178438, 6.0285168486129, 9.028516879382, 12.028516910151, 15.02851694092, 18.0285160183, 21.028517002458, 24.028516079838, 27.028517063997, 30.028516141376, 33.028517125535, 36.028516202914, 39.028515280294, 42.028518171232, 45.028517248611, 48.028516325991, 51.02851540337, 54.028518294308, 57.028517371688, 60.028516449067],
      "SmallestImagePixelValue": [0, 3, 0, 0, 0, 2, 0, 2, 0, 0, 19, 3, 10, 0, 0, 5, 18, 35, 3, 11, 5, 0, 9, 6, 13, 15, 1, 2, 2, 2, 1, 2, 5, 0, 0, 1, 2, 3],
      "WindowCenter": [-260.0, -220.0, -292.0, -222.0, -182.0, -198.0, -332.0, -180.0, -120.0, -116.0, -152.0, -160.0, -216.0, -226.0, -340.0, -154.0, -150.0, -152.0, -310.0, -238.0, -202.0, -194.0, -220.0, -228.0, -284.0, -258.0, -254.0, -250.0, -274.0, -310.0, -320.0, -170.0, -160.0, -176.0, -196.0, -226.0, -192.0, -160.0],
      "WindowWidth": [5592.0, 5704.0, 5682.0, 5706.0, 5464.0, 5558.0, 4766.0, 5480.0, 5558.0, 5586.0, 5518.0, 5474.0, 5246.0, 5328.0, 4616.0, 5402.0, 5298.0, 5248.0, 4518.0, 4494.0, 4488.0, 4504.0, 4510.0, 4524.0, 4546.0, 4524.0, 4528.0, 4550.0, 4586.0, 4640.0, 4698.0, 5594.0, 5728.0, 5886.0, 6100.0, 6260.0, 6360.0, 6478.0]
    }
  }
}