{
  "AcquisitionMatrixPE": 72,
  "AcquisitionNumber": 1,
  "AcquisitionTime": "16:33:35.600000",
  "BodyPartExamined": "BRAIN",
  "ConversionSoftware": "dcm2niix",
  "ConversionSoftwareVersion": "v1.0.20220720",
  "DeviceSerialNumber": "45219",
  "EchoNumber": 2,
  "EchoTime": 0.00738,
  "EchoTime1": 0.00492,
  "EchoTime2": 0.00738,
  "FlipAngle": 60,
  "HeudiconvVersion": "1.1.6",
  "ImageOrientationPatientDICOM": [0.996249, 0.084016, -0.0207271, -0.0819066, 0.9928, 0.0874092],
  "ImageType": [
    "ORIGINAL",
    "PRIMARY",
    "P",
    "ND",
    "PHASE"
],
  "ImagingFrequency": 123.182,
  "InPlanePhaseEncodingDirectionDICOM": "ROW",
  "MRAcquisitionType": "2D",
  "MagneticFieldStrength": 3,
  "Manufacturer": "Siemens",
  "ManufacturersModelName": "DicomCleaner",
  "Modality": "MR",
  "MultibandAccelerationFactor": 2,
  "NonlinearGradientCorrection": false,
  "PatientPosition": "HFS",
  "PercentPhaseFOV": 100,
  "PercentSampling": 100,
  "PhaseEncodingAxis": "i",
  "PhaseEncodingSteps": 72,
  "PixelBandwidth": 290,
  "ProtocolName": "gre_fm_bold",
  "ReconMatrixPE": 72,
  "RepetitionTime": 0.444,
  "SAR": 0.172879,
  "ScanningSequence": "GR",
  "SequenceName": "*fm2d2r",
  "SequenceVariant": "SP",
  "SeriesDescription": "gre_fm_bold",
  "SeriesNumber": 5,
  "SliceThickness": 3,
  "SliceTiming": [0.21875, 0, 0.23438, 0.01562, 0.25, 0.03125, 0.26562, 0.03125, 0.26562, 0.04688, 0.28125, 0.0625, 0.29688, 0.07812, 0.3125, 0.07812, 0.3125, 0.09375, 0.32812, 0.10938, 0.34375, 0.125, 0.35938, 0.125, 0.35938, 0.14062, 0.375, 0.15625, 0.39062, 0.17188, 0.40625, 0.17188, 0.40625, 0.1875, 0.42188, 0.20312, 0.4375, 0.21875],
  "SoftwareVersions": "Tue Feb 12 18:07:17 EST 2019",
  "SpacingBetweenSlices": 3,
  "StationName": "PIERRJ03PC",
  "dcmmeta_affine": [
    [-2.988746404647827, -0.24571968615055084, -0.08376491069793701, 117.74496459960938],
    [-0.2520480453968048, 2.978398561477661, 0.2561507225036621, -111.83395385742188],
    [-0.06218133494257927, -0.2622275948524475, 2.9878692626953125, -29.601083755493164],
    [0.0, 0.0, 0.0, 1.0]
],
  "dcmmeta_reorient_transform": [
    [0.0, -1.0, 0.0, 71.0],
    [1.0, 0.0, 0.0, 0.0],
    [0.0, 0.0, -1.0, 37.0],
    [0.0, 0.0, 0.0, 1.0]
],
  "dcmmeta_shape": [72, 72, 38],
  "dcmmeta_slice_dim": 2,
  "dcmmeta_version": 0.6,
  "global": {
    "const": {
      "AcquisitionMatrix": [0, 72, 72, 0],
      "AcquisitionNumber": 1,
      "AngioFlag": "N",
      "BitsAllocated": 16,
      "BitsStored": 12,
      "BodyPartExamined": "BRAIN",
      "Columns": 72,
      "DeidentificationMethod": [
        "Deidentified",
        "Descriptors removed except series except protocol",
        "Patient Characteristics removed",
        "Device identity retained",
        "Institution identity removed",
        "Dates retained",
        "Structured content modified",
        "Unsafe private removed",
        "UIDs remapped"
],
      "DeidentificationMethodCodeSequence": [
        {
          "CodeMeaning": "Basic Application Confidentiality Profile",
          "CodeValue": "113100",
          "CodingSchemeDesignator": "DCM"
        },
        {
          "CodeMeaning": "Remove all descriptors except Series Description & Protocol Name",
          "CodeValue": "210008",
          "CodingSchemeDesignator": "99PMP"
        },
        {
          "CodeMeaning": "Retain Device Identity Option",
          "CodeValue": "113109",
          "CodingSchemeDesignator": "DCM"
        },
        {
          "CodeMeaning": "Retain Longitudinal Temporal Information Full Dates Option",
          "CodeValue": "113106",
          "CodingSchemeDesignator": "DCM"
        },
        {
          "CodeMeaning": "Clean Structured Content Option",
          "CodeValue": "113104",
          "CodingSchemeDesignator": "DCM"
        },
        {
          "CodeMeaning": "Retain Safe Private Option",
          "CodeValue": "113111",
          "CodingSchemeDesignator": "DCM"
        },
        {
          "CodeMeaning": "Remap UIDs",
          "CodeValue": "210001",
          "CodingSchemeDesignator": "99PMP"
        }
],
      "EchoNumbers": 2,
      "EchoTime": 7.38,
      "EchoTrainLength": 0,
      "FlipAngle": 60.0,
      "HighBit": 11,
      "ImageOrientationPatient": [0.99624881266642, 0.08401601091286, -0.0207271119801, -0.0819065644735, 0.99279955016377, 0.08740919797571],
      "ImageType": [
        "ORIGINAL",
        "PRIMARY",
        "P",
        "ND"
],
      "ImagedNucleus": "1H",
      "ImagingFrequency": 123.181722,
      "InPlanePhaseEncodingDirection": "ROW",
      "MRAcquisitionType": "2D",
      "MagneticFieldStrength": 3.0,
      "Manufacturer": "SIEMENS",
      "ManufacturerModelName": "Skyra",
      "Modality": "MR",
      "NumberOfAverages": 1.0,
      "NumberOfPhaseEncodingSteps": 72,
      "PercentPhaseFieldOfView": 100.0,
      "PercentSampling": 100.0,
      "PerformedProcedureStepStartTime": "161845.823000",
      "PhotometricInterpretation": "MONOCHROME2",
      "PixelBandwidth": 290.0,
      "PixelRepresentation": 0,
      "PixelSpacing": [3.0, 3.0],
      "ProcedureCodeSequence": [
        {
          "CodeMeaning": "MRI BRAIN WITHOUT IV CONTRAST",
          "CodeValue": "IMG269",
          "CodingSchemeDesignator": "L"
        }
],
      "ProtocolName": "gre_fm_bold",
      "RepetitionTime": 444.0,
      "RequestedProcedureCodeSequence": [
        {
          "CodeMeaning": "MRI BRAIN WITHOUT IV CONTRAST",
          "CodeValue": "IMG269",
          "CodingSchemeDesignator": "L"
        }
],
      "RescaleIntercept": -4096.0,
      "RescaleSlope": 2.0,
      "RescaleType": "US",
      "Rows": 72,
      "SAR": 0.17287856144861,
      "SamplesPerPixel": 1,
      "ScanningSequence": "GR",
      "SequenceName": "*fm2d2r",
      "SequenceVariant": "SP",
      "SeriesDescription": "gre_fm_bold",
      "SeriesNumber": 5,
      "SeriesTime": "163439.779000",
      "SliceThickness": 3.0,
      "SoftwareVersions": "syngo MR E11",
      "SpacingBetweenSlices": 3.0,
      "StudyTime": "161845.660000",
      "TransmitCoilName": "Body",
      "VariableFlipAngleFlag": "N",
      "WindowCenterWidthExplanation": "Algo1",
      "dBdt": 0.0},
    "slices": {
      "AcquisitionTime": ["163335.600000", "163335.377500", "163335.612500", "163335.390000", "163335.622500", "163335.402500", "163335.635000", "163335.412500", "163335.647500", "163335.425000", "163335.660000", "163335.437500", "163335.670000", "163335.447500", "163335.682500", "163335.460000", "163335.695000", "163335.472500", "163335.705000", "163335.482500", "163335.717500", "163335.495000", "163335.730000", "163335.507500", "163335.740000", "163335.517500", "163335.752500", "163335.530000", "163335.765000", "163335.542500", "163335.775000", "163335.552500", "163335.787500", "163335.565000", "163335.800000", "163335.577500", "163335.810000", "163335.587500"],
      "ContentTime": ["163439.836000", "163439.782000", "163439.839000", "163439.785000", "163439.841000", "163439.787000", "163439.844000", "163439.796000", "163439.847000", "163439.799000", "163439.851000", "163439.801000", "163439.854000", "163439.803000", "163439.857000", "163439.809000", "163439.860000", "163439.811000", "163439.862000", "163439.813000", "163439.865000", "163439.816000", "163439.867000", "163439.818000", "163439.870000", "163439.820000", "163439.872000", "163439.822000", "163439.875000", "163439.824000", "163439.878000", "163439.827000", "163439.880000", "163439.829000", "163439.883000", "163439.831000", "163439.885000", "163439.834000"],
      "ContributingEquipmentSequence": [
        [
          {
            "ContributionDateTime": "20200312105528.858-0400",
            "ContributionDescription": "Cleaned",
            "Manufacturer": "PixelMed",
            "ManufacturerModelName": "DicomCleaner",
            "PurposeOfReferenceCodeSequence": [
              {
                "CodeMeaning": "De-identifying Equipment",
                "CodeValue": "109104",
                "CodingSchemeDesignator": "DCM"
              }
],
            "SoftwareVersions": "Tue Feb 12 18:07:17 EST 2019",
            "StationName": "PIERRJ03PC"
          }
],
        [
          {
            "ContributionDateTime": "20200312105528.868-0400",
            "ContributionDescription": "Cleaned",
            "Manufacturer": "PixelMed",
            "ManufacturerModelName": "DicomCleaner",
            "PurposeOfReferenceCodeSequence": [
              {
                "CodeMeaning": "De-identifying Equipment",
                "CodeValue": "109104",
                "CodingSchemeDesignator": "DCM"
              }
],
            "SoftwareVersions": "Tue Feb 12 18:07:17 EST 2019",
            "StationName": "PIERRJ03PC"
          }
],
        [
          {
            "ContributionDateTime": "20200312105528.878-0400",
            "ContributionDescription": "Cleaned",
            "Manufacturer": "PixelMed",
            "ManufacturerModelName": "DicomCleaner",
            "PurposeOfReferenceCodeSequence": [
              {
                "CodeMeaning": "De-identifying Equipment",
                "CodeValue": "109104",
                "CodingSchemeDesignator": "DCM"
              }
],
            "SoftwareVersions": "Tue Feb 12 18:07:17 EST 2019",
            "StationName": "PIERRJ03PC"
          }
],
        [
          {
            "ContributionDateTime": "20200312105528.887-0400",
            "ContributionDescription": "Cleaned",
            "Manufacturer": "PixelMed",
            "ManufacturerModelName": "DicomCleaner",
            "PurposeOfReferenceCodeSequence": [
              {
                "CodeMeaning": "De-identifying Equipment",
                "CodeValue": "109104",
                "CodingSchemeDesignator": "DCM"
              }
],
            "SoftwareVersions": "Tue Feb 12 18:07:17 EST 2019",
            "StationName": "PIERRJ03PC"
          }
],
        [
          {
            "ContributionDateTime": "20200312105528.897-0400",
            "ContributionDescription": "Cleaned",
            "Manufacturer": "PixelMed",
            "ManufacturerModelName": "DicomCleaner",
            "PurposeOfReferenceCodeSequence": [
              {
                "CodeMeaning": "De-identifying Equipment",
                "CodeValue": "109104",
                "CodingSchemeDesignator": "DCM"
              }
],
            "SoftwareVersions": "Tue Feb 12 18:07:17 EST 2019",
            "StationName": "PIERRJ03PC"
          }
],
        [
          {
            "ContributionDateTime": "20200312105528.907-0400",
            "ContributionDescription": "Cleaned",
            "Manufacturer": "PixelMed",
            "ManufacturerModelName": "DicomCleaner",
            "PurposeOfReferenceCodeSequence": [
              {
                "CodeMeaning": "De-identifying Equipment",
                "CodeValue": "109104",
                "CodingSchemeDesignator": "DCM"
              }
],
            "SoftwareVersions": "Tue Feb 12 18:07:17 EST 2019",
            "StationName": "PIERRJ03PC"
          }
],
        [
          {
            "ContributionDateTime": "20200312105528.916-0400",
            "ContributionDescription": "Cleaned",
            "Manufacturer": "PixelMed",
            "ManufacturerModelName": "DicomCleaner",
            "PurposeOfReferenceCodeSequence": [
              {
                "CodeMeaning": "De-identifying Equipment",
                "CodeValue": "109104",
                "CodingSchemeDesignator": "DCM"
              }
],
            "SoftwareVersions": "Tue Feb 12 18:07:17 EST 2019",
            "StationName": "PIERRJ03PC"
          }
],
        [
          {
            "ContributionDateTime": "20200312105528.925-0400",
            "ContributionDescription": "Cleaned",
            "Manufacturer": "PixelMed",
            "ManufacturerModelName": "DicomCleaner",
            "PurposeOfReferenceCodeSequence": [
              {
                "CodeMeaning": "De-identifying Equipment",
                "CodeValue": "109104",
                "CodingSchemeDesignator": "DCM"
              }
],
            "SoftwareVersions": "Tue Feb 12 18:07:17 EST 2019",
            "StationName": "PIERRJ03PC"
          }
],
        [
          {
            "ContributionDateTime": "20200312105528.935-0400",
            "ContributionDescription": "Cleaned",
            "Manufacturer": "PixelMed",
            "ManufacturerModelName": "DicomCleaner",
            "PurposeOfReferenceCodeSequence": [
              {
                "CodeMeaning": "De-identifying Equipment",
                "CodeValue": "109104",
                "CodingSchemeDesignator": "DCM"
              }
],
            "SoftwareVersions": "Tue Feb 12 18:07:17 EST 2019",
            "StationName": "PIERRJ03PC"
          }
],
        [
          {
            "ContributionDateTime": "20200312105528.946-0400",
            "ContributionDescription": "Cleaned",
            "Manufacturer": "PixelMed",
            "ManufacturerModelName": "DicomCleaner",
            "PurposeOfReferenceCodeSequence": [
              {
                "CodeMeaning": "De-identifying Equipment",
                "CodeValue": "109104",
                "CodingSchemeDesignator": "DCM"
              }
],
            "SoftwareVersions": "Tue Feb 12 18:07:17 EST 2019",
            "StationName": "PIERRJ03PC"
          }
],
        [
          {
            "ContributionDateTime": "20200312105528.955-0400",
            "ContributionDescription": "Cleaned",
            "Manufacturer": "PixelMed",
            "ManufacturerModelName": "DicomCleaner",
            "PurposeOfReferenceCodeSequence": [
              {
                "CodeMeaning": "De-identifying Equipment",
                "CodeValue": "109104",
                "CodingSchemeDesignator": "DCM"
              }
],
            "SoftwareVersions": "Tue Feb 12 18:07:17 EST 2019",
            "StationName": "PIERRJ03PC"
          }
],
        [
          {
            "ContributionDateTime": "20200312105528.965-0400",
            "ContributionDescription": "Cleaned",
            "Manufacturer": "PixelMed",
            "ManufacturerModelName": "DicomCleaner",
            "PurposeOfReferenceCodeSequence": [
              {
                "CodeMeaning": "De-identifying Equipment",
                "CodeValue": "109104",
                "CodingSchemeDesignator": "DCM"
              }
],
            "SoftwareVersions": "Tue Feb 12 18:07:17 EST 2019",
            "StationName": "PIERRJ03PC"
          }
],
        [
          {
            "ContributionDateTime": "20200312105528.974-0400",
            "ContributionDescription": "Cleaned",
            "Manufacturer": "PixelMed",
            "ManufacturerModelName": "DicomCleaner",
            "PurposeOfReferenceCodeSequence": [
              {
                "CodeMeaning": "De-identifying Equipment",
                "CodeValue": "109104",
                "CodingSchemeDesignator": "DCM"
              }
],
            "SoftwareVersions": "Tue Feb 12 18:07:17 EST 2019",
            "StationName": "PIERRJ03PC"
          }
],
        [
          {
            "ContributionDateTime": "20200312105528.982-0400",
            "ContributionDescription": "Cleaned",
            "Manufacturer": "PixelMed",
            "ManufacturerModelName": "DicomCleaner",
            "PurposeOfReferenceCodeSequence": [
              {
                "CodeMeaning": "De-identifying Equipment",
                "CodeValue": "109104",
                "CodingSchemeDesignator": "DCM"
              }
],
            "SoftwareVersions": "Tue Feb 12 18:07:17 EST 2019",
            "StationName": "PIERRJ03PC"
          }
],
        [
          {
            "ContributionDateTime": "20200312105528.991-0400",
            "ContributionDescription": "Cleaned",
            "Manufacturer": "PixelMed",
            "ManufacturerModelName": "DicomCleaner",
            "PurposeOfReferenceCodeSequence": [
              {
                "CodeMeaning": "De-identifying Equipment",
                "CodeValue": "109104",
                "CodingSchemeDesignator": "DCM"
              }
],
            "SoftwareVersions": "Tue Feb 12 18:07:17 EST 2019",
            "StationName": "PIERRJ03PC"
          }
],
        [
          {
            "ContributionDateTime": "20200312105529.001-0400",
            "ContributionDescription": "Cleaned",
            "Manufacturer": "PixelMed",
            "ManufacturerModelName": "DicomCleaner",
            "PurposeOfReferenceCodeSequence": [
              {
                "CodeMeaning": "De-identifying Equipment",
                "CodeValue": "109104",
                "CodingSchemeDesignator": "DCM"
              }
],
            "SoftwareVersions": "Tue Feb 12 18:07:17 EST 2019",
            "StationName": "PIERRJ03PC"
          }
],
        [
          {
            "ContributionDateTime": "20200312105529.011-0400",
            "ContributionDescription": "Cleaned",
            "Manufacturer": "PixelMed",
            "ManufacturerModelName": "DicomCleaner",
            "PurposeOfReferenceCodeSequence": [
              {
                "CodeMeaning": "De-identifying Equipment",
                "CodeValue": "109104",
                "CodingSchemeDesignator": "DCM"
              }
],
            "SoftwareVersions": "Tue Feb 12 18:07:17 EST 2019",
            "StationName": "PIERRJ03PC"
          }
],
        [
          {
            "ContributionDateTime": "20200312105529.022-0400",
            "ContributionDescription": "Cleaned",
            "Manufacturer": "PixelMed",
            "ManufacturerModelName": "DicomCleaner",
            "PurposeOfReferenceCodeSequence": [
              {
                "CodeMeaning": "De-identifying Equipment",
                "CodeValue": "109104",
                "CodingSchemeDesignator": "DCM"
              }
],
            "SoftwareVersions": "Tue Feb 12 18:07:17 EST 2019",
            "StationName": "PIERRJ03PC"
          }
],
        [
          {
            "ContributionDateTime": "20200312105529.031-0400",
            "ContributionDescription": "Cleaned",
            "Manufacturer": "PixelMed",
            "ManufacturerModelName": "DicomCleaner",
            "PurposeOfReferenceCodeSequence": [
              {
                "CodeMeaning": "De-identifying Equipment",
                "CodeValue": "109104",
                "CodingSchemeDesignator": "DCM"
              }
],
            "SoftwareVersions": "Tue Feb 12 18:07:17 EST 2019",
            "StationName": "PIERRJ03PC"
          }
],
        [
          {
            "ContributionDateTime": "20200312105529.043-0400",
            "ContributionDescription": "Cleaned",
            "Manufacturer": "PixelMed",
            "ManufacturerModelName": "DicomCleaner",
            "PurposeOfReferenceCodeSequence": [
              {
                "CodeMeaning": "De-identifying Equipment",
                "CodeValue": "109104",
                "CodingSchemeDesignator": "DCM"
              }
],
            "SoftwareVersions": "Tue Feb 12 18:07:17 EST 2019",
            "StationName": "PIERRJ03PC"
          }
],
        [
          {
            "ContributionDateTime": "20200312105529.055-0400",
            "ContributionDescription": "Cleaned",
            "Manufacturer": "PixelMed",
            "ManufacturerModelName": "DicomCleaner",
            "PurposeOfReferenceCodeSequence": [
              {
                "CodeMeaning": "De-identifying Equipment",
                "CodeValue": "109104",
                "CodingSchemeDesignator": "DCM"
              }
],
            "SoftwareVersions": "Tue Feb 12 18:07:17 EST 2019",
            "StationName": "PIERRJ03PC"
          }
],
        [
          {
            "ContributionDateTime": "20200312105529.066-0400",
            "ContributionDescription": "Cleaned",
            "Manufacturer": "PixelMed",
            "ManufacturerModelName": "DicomCleaner",
            "PurposeOfReferenceCodeSequence": [
              {
                "CodeMeaning": "De-identifying Equipment",
                "CodeValue": "109104",
                "CodingSchemeDesignator": "DCM"
              }
],
            "SoftwareVersions": "Tue Feb 12 18:07:17 EST 2019",
            "StationName": "PIERRJ03PC"
          }
],
        [
          {
            "ContributionDateTime": "20200312105529.079-0400",
            "ContributionDescription": "Cleaned",
            "Manufacturer": "PixelMed",
            "ManufacturerModelName": "DicomCleaner",
            "PurposeOfReferenceCodeSequence": [
              {
                "CodeMeaning": "De-identifying Equipment",
                "CodeValue": "109104",
                "CodingSchemeDesignator": "DCM"
              }
],
            "SoftwareVersions": "Tue Feb 12 18:07:17 EST 2019",
            "StationName": "PIERRJ03PC"
          }
],
        [
          {
            "ContributionDateTime": "20200312105529.090-0400",
            "ContributionDescription": "Cleaned",
            "Manufacturer": "PixelMed",
            "ManufacturerModelName": "DicomCleaner",
            "PurposeOfReferenceCodeSequence": [
              {
                "CodeMeaning": "De-identifying Equipment",
                "CodeValue": "109104",
                "CodingSchemeDesignator": "DCM"
              }
],
            "SoftwareVersions": "Tue Feb 12 18:07:17 EST 2019",
            "StationName": "PIERRJ03PC"
          }
],
        [
          {
            "ContributionDateTime": "20200312105529.101-0400",
            "ContributionDescription": "Cleaned",
            "Manufacturer": "PixelMed",
            "ManufacturerModelName": "DicomCleaner",
            "PurposeOfReferenceCodeSequence": [
              {
                "CodeMeaning": "De-identifying Equipment",
                "CodeValue": "109104",
                "CodingSchemeDesignator": "DCM"
              }
],
            "SoftwareVersions": "Tue Feb 12 18:07:17 EST 2019",
            "StationName": "PIERRJ03PC"
          }
],
        [
          {
            "ContributionDateTime": "20200312105529.127-0400",
            "ContributionDescription": "Cleaned",
            "Manufacturer": "PixelMed",
            "ManufacturerModelName": "DicomCleaner",
            "PurposeOfReferenceCodeSequence": [
              {
                "CodeMeaning": "De-identifying Equipment",
                "CodeValue": "109104",
                "CodingSchemeDesignator": "DCM"
              }
],
            "SoftwareVersions": "Tue Feb 12 18:07:17 EST 2019",
            "StationName": "PIERRJ03PC"
          }
],
        [
          {
            "ContributionDateTime": "20200312105529.139-0400",
            "ContributionDescription": "Cleaned",
            "Manufacturer": "PixelMed",
            "ManufacturerModelName": "DicomCleaner",
            "PurposeOfReferenceCodeSequence": [
              {
                "CodeMeaning": "De-identifying Equipment",
                "CodeValue": "109104",
                "CodingSchemeDesignator": "DCM"
              }
],
            "SoftwareVersions": "Tue Feb 12 18:07:17 EST 2019",
            "StationName": "PIERRJ03PC"
          }
],
        [
          {
            "ContributionDateTime": "20200312105529.149-0400",
            "ContributionDescription": "Cleaned",
            "Manufacturer": "PixelMed",
            "ManufacturerModelName": "DicomCleaner",
            "PurposeOfReferenceCodeSequence": [
              {
                "CodeMeaning": "De-identifying Equipment",
                "CodeValue": "109104",
                "CodingSchemeDesignator": "DCM"
              }
],
            "SoftwareVersions": "Tue Feb 12 18:07:17 EST 2019",
            "StationName": "PIERRJ03PC"
          }
],
        [
          {
            "ContributionDateTime": "20200312105529.158-0400",
            "ContributionDescription": "Cleaned",
            "Manufacturer": "PixelMed",
            "ManufacturerModelName": "DicomCleaner",
            "PurposeOfReferenceCodeSequence": [
              {
                "CodeMeaning": "De-identifying Equipment",
                "CodeValue": "109104",
                "CodingSchemeDesignator": "DCM"
              }
],
            "SoftwareVersions": "Tue Feb 12 18:07:17 EST 2019",
            "StationName": "PIERRJ03PC"
          }
],
        [
          {
            "ContributionDateTime": "20200312105529.167-0400",
            "ContributionDescription": "Cleaned",
            "Manufacturer": "PixelMed",
            "ManufacturerModelName": "DicomCleaner",
            "PurposeOfReferenceCodeSequence": [
              {
                "CodeMeaning": "De-identifying Equipment",
                "CodeValue": "109104",
                "CodingSchemeDesignator": "DCM"
              }
],
            "SoftwareVersions": "Tue Feb 12 18:07:17 EST 2019",
            "StationName": "PIERRJ03PC"
          }
],
        [
          {
            "ContributionDateTime": "20200312105529.176-0400",
            "ContributionDescription": "Cleaned",
            "Manufacturer": "PixelMed",
            "ManufacturerModelName": "DicomCleaner",
            "PurposeOfReferenceCodeSequence": [
              {
                "CodeMeaning": "De-identifying Equipment",
                "CodeValue": "109104",
                "CodingSchemeDesignator": "DCM"
              }
],
            "SoftwareVersions": "Tue Feb 12 18:07:17 EST 2019",
            "StationName": "PIERRJ03PC"
          }
],
        [
          {
            "ContributionDateTime": "20200312105529.185-0400",
            "ContributionDescription": "Cleaned",
            "Manufacturer": "PixelMed",
            "ManufacturerModelName": "DicomCleaner",
            "PurposeOfReferenceCodeSequence": [
              {
                "CodeMeaning": "De-identifying Equipment",
                "CodeValue": "109104",
                "CodingSchemeDesignator": "DCM"
              }
],
            "SoftwareVersions": "Tue Feb 12 18:07:17 EST 2019",
            "StationName": "PIERRJ03PC"
          }
],
        [
          {
            "ContributionDateTime": "20200312105529.194-0400",
            "ContributionDescription": "Cleaned",
            "Manufacturer": "PixelMed",
            "ManufacturerModelName": "DicomCleaner",
            "PurposeOfReferenceCodeSequence": [
              {
                "CodeMeaning": "De-identifying Equipment",
                "CodeValue": "109104",
                "CodingSchemeDesignator": "DCM"
              }
],
            "SoftwareVersions": "Tue Feb 12 18:07:17 EST 2019",
            "StationName": "PIERRJ03PC"
          }
],
        [
          {
            "ContributionDateTime": "20200312105529.203-0400",
            "ContributionDescription": "Cleaned",
            "Manufacturer": "PixelMed",
            "ManufacturerModelName": "DicomCleaner",
            "PurposeOfReferenceCodeSequence": [
              {
                "CodeMeaning": "De-identifying Equipment",
                "CodeValue": "109104",
                "CodingSchemeDesignator": "DCM"
              }
],
            "SoftwareVersions": "Tue Feb 12 18:07:17 EST 2019",
            "StationName": "PIERRJ03PC"
          }
],
        [
          {
            "ContributionDateTime": "20200312105529.213-0400",
            "ContributionDescription": "Cleaned",
            "Manufacturer": "PixelMed",
            "ManufacturerModelName": "DicomCleaner",
            "PurposeOfReferenceCodeSequence": [
              {
                "CodeMeaning": "De-identifying Equipment",
                "CodeValue": "109104",
                "CodingSchemeDesignator": "DCM"
              }
],
            "SoftwareVersions": "Tue Feb 12 18:07:17 EST 2019",
            "StationName": "PIERRJ03PC"
          }
],
        [
          {
            "ContributionDateTime": "20200312105529.222-0400",
            "ContributionDescription": "Cleaned",
            "Manufacturer": "PixelMed",
            "ManufacturerModelName": "DicomCleaner",
            "PurposeOfReferenceCodeSequence": [
              {
                "CodeMeaning": "De-identifying Equipment",
                "CodeValue": "109104",
                "CodingSchemeDesignator": "DCM"
              }
],
            "SoftwareVersions": "Tue Feb 12 18:07:17 EST 2019",
            "StationName": "PIERRJ03PC"
          }
],
        [
          {
            "ContributionDateTime": "20200312105529.232-0400",
            "ContributionDescription": "Cleaned",
            "Manufacturer": "PixelMed",
            "ManufacturerModelName": "DicomCleaner",
            "PurposeOfReferenceCodeSequence": [
              {
                "CodeMeaning": "De-identifying Equipment",
                "CodeValue": "109104",
                "CodingSchemeDesignator": "DCM"
              }
],
            "SoftwareVersions": "Tue Feb 12 18:07:17 EST 2019",
            "StationName": "PIERRJ03PC"
          }
],
        [
          {
            "ContributionDateTime": "20200312105529.240-0400",
            "ContributionDescription": "Cleaned",
            "Manufacturer": "PixelMed",
            "ManufacturerModelName": "DicomCleaner",
            "PurposeOfReferenceCodeSequence": [
              {
                "CodeMeaning": "De-identifying Equipment",
                "CodeValue": "109104",
                "CodingSchemeDesignator": "DCM"
              }
],
            "SoftwareVersions": "Tue Feb 12 18:07:17 EST 2019",
            "StationName": "PIERRJ03PC"
          }
]
],
      "ImagePositionPatient": [
        [-100.29886607842, -99.632344252893, -48.219289188897],
        [-100.21510116772, -99.888495452233, -45.231419926202],
        [-100.13133625702, -100.14464665157, -42.243550663507],
        [-100.04757134632, -100.40079689724, -39.255677586114],
        [-99.963806435625, -100.65694809658, -36.267808323419],
        [-99.880041524927, -100.91309929592, -33.279939060723],
        [-99.796276614229, -101.16924954159, -30.29206789068],
        [-99.712511703532, -101.42540074093, -27.304196720636],
