{
  "AcquisitionMatrixPE": 72,
  "AcquisitionNumber": 1,
  "AcquisitionTime": "16:44:59.222500",
  "BandwidthPerPixelPhaseEncode": 24.366,
  "BaseResolution": 72,
  "BodyPartExamined": "BRAIN",
  "CoilCombinationMethod": "Sum of Squares",
  "ConsistencyInfo": "N4_VE11C_LATEST_20160120",
  "ConversionSoftware": "dcm2niix",
  "ConversionSoftwareVersion": "v1.0.20220720",
  "DerivedVendorReportedEchoSpacing": 0.000570011,
  "DeviceSerialNumber": "45219",
  "DwellTime": 3.5e-06,
  "EchoTime": 0.03,
  "EchoTrainLength": 72,
  "EffectiveEchoSpacing": 0.000570011,
  "FlipAngle": 80,
  "HeudiconvVersion": "1.1.6",
  "ImageComments": "Reference volume for motion correction.",
  "ImageOrientationPatientDICOM": [0.999194, -0.00314869, 0.0400081, -1.35243e-08, 0.996917, 0.0784591],
  "ImageOrientationText": "Tra>Cor(4.5)>Sag(2.3)",
  "ImageType": [
    "ORIGINAL",
    "PRIMARY",
    "M",
    "ND",
    "NORM",
    "MOCO",
    "MOSAIC"
],
  "ImagingFrequency": 123.182,
  "InPlanePhaseEncodingDirectionDICOM": "COL",
  "InstitutionAddress": "First Avenue 660,New York,NYC,US,10016",
  "InstitutionName": "NYU LANGONE CBI",
  "InstitutionalDepartmentName": "Department",
  "MRAcquisitionType": "2D",
  "MagneticFieldStrength": 3,
  "Manufacturer": "Siemens",
  "ManufacturersModelName": "Skyra",
  "MatrixCoilMode": "SENSE",
  "Modality": "MR",
  "NonlinearGradientCorrection": false,
  "PartialFourier": 1,
  "PatientPosition": "HFS",
  "PercentPhaseFOV": 100,
  "PercentSampling": 100,
  "PhaseEncodingDirection": "j-",
  "PhaseEncodingSteps": 72,
  "PhaseResolution": 1,
  "PixelBandwidth": 1985,
  "ProcedureStepDescription": "MRI BRAIN WITHOUT IV CONTRAST",
  "ProtocolName": "REST_2_MoCo",
  "PulseSequenceDetails": "%SiemensSeq%\\ep2d_bold",
  "ReceiveCoilActiveElements": "HE1-4",
  "ReceiveCoilName": "HeadNeck_20",
  "ReconMatrixPE": 72,
  "RepetitionTime": 2.5,
  "SAR": 0.167787,
  "ScanOptions": "FS",
  "ScanningSequence": "EP",
  "SequenceName": "*epfid2d1_72",
  "SequenceVariant": "SK",
  "SeriesDescription": "MoCoSeries",
  "SeriesNumber": 10,
  "ShimSetting": [-880, -7077, 5302, 479, -306, 1, -74, -96],
  "SliceThickness": 3,
  "SliceTiming": [1.24, 0, 1.305, 0.065, 1.37, 0.13, 1.435, 0.195, 1.5, 0.26, 1.565, 0.325, 1.63, 0.39, 1.695, 0.4575, 1.7625, 0.5225, 1.8275, 0.5875, 1.8925, 0.6525, 1.9575, 0.7175, 2.0225, 0.7825, 2.0875, 0.8475, 2.1525, 0.9125, 2.2175, 0.9775, 2.2825, 1.0425, 2.35, 1.11, 2.415, 1.175],
  "SoftwareVersions": "syngo MR E11",
  "SpacingBetweenSlices": 3,
  "StationName": "MRC45219",
  "TaskName": "rest",
  "TotalReadoutTime": 0.0404708,
  "TxRefAmp": 453.087,
  "dcmmeta_affine": [
    [-2.9975831508636475, -4.057285352132567e-08, 0.12039537727832794, 104.99795532226562],
    [0.009446071460843086, 2.9907519817352295, 0.23518766462802887, -113.50057983398438],
    [0.12002424150705338, -0.23537728190422058, 2.988342761993408, 14.953177452087402],
    [0.0, 0.0, 0.0, 1.0]
],
  "dcmmeta_reorient_transform": [
    [0.0, -1.0, 0.0, 71.0],
    [1.0, 0.0, 0.0, 0.0],
    [0.0, 0.0, 1.0, 0.0],
    [0.0, 0.0, 0.0, 1.0]
],
  "dcmmeta_shape": [72, 72, 38, 122],
  "dcmmeta_slice_dim": 2,
  "dcmmeta_version": 0.6,
  "global": {
    "const": {
      "AccessionNumber": "REMOVED",
      "AcquisitionMatrix": [72, 0, 0, 72],
      "AngioFlag": "N",
      "BitsAllocated": 16,
      "BitsStored": 12,
      "BodyPartExamined": "BRAIN",
      "Columns": 504,
      "CountryOfResidence": "REMOVED",
      "DeidentificationMethod": "anonymize.default",
      "DeidentificationMethodCodeSequence": [
        {
          "CodeMeaning": "Basic Anonymization",
          "CodeValue": "113199",
          "CodingSchemeDesignator": "2012CDX"
        }
],
      "EchoNumbers": 1,
      "EchoTime": 30.0,
      "EchoTrainLength": 72,
      "FlipAngle": 80.0,
      "HighBit": 11,
      "ImageOrientationPatient": [0.9991943951548, -0.0031486906023, 0.0400080796681, -1.3524284e-08, 0.99691733373157, 0.07845909574769],
      "ImagePositionPatient": [-752.47591416543, -742.80489563549, -78.525339811479],
      "ImageType": [
        "ORIGINAL",
        "PRIMARY",
        "M",
        "ND",
        "NORM",
        "MOCO",
        "MOSAIC"
],
      "ImagedNucleus": "1H",
      "ImagingFrequency": 123.181873,
      "InPlanePhaseEncodingDirection": "COL",
      "MRAcquisitionType": "2D",
      "MagneticFieldStrength": 3.0,
      "Manufacturer": "SIEMENS",
      "ManufacturerModelName": "Skyra",
      "Modality": "MR",
      "NumberOfAverages": 1.0,
      "NumberOfPhaseEncodingSteps": 72,
      "PercentPhaseFieldOfView": 100.0,
      "PercentSampling": 100.0,
      "PerformedProcedureStepStartTime": "162629.527000",
      "PhotometricInterpretation": "MONOCHROME2",
      "PixelBandwidth": 1985.0,
      "PixelRepresentation": 0,
      "PixelSpacing": [3.0, 3.0],
      "PregnancyStatus": 0,
      "ProcedureCodeSequence": [
        {
          "CodeMeaning": "MRI BRAIN WITHOUT IV CONTRAST",
          "CodeValue": "IMG269",
          "CodingSchemeDesignator": "L"
        }
],
      "ProtocolName": "REST_2",
      "RepetitionTime": 2500.0,
      "RequestAttributesSequence": [
        {
          "RequestedProcedureID": "365122554",
          "ScheduledProcedureStepDescription": "MRI BRAIN WITHOUT IV CONTRAST",
          "ScheduledProcedureStepID": "E10670491",
          "ScheduledProtocolCodeSequence": [
            {
              "CodeMeaning": "MRI BRAIN WITHOUT IV CONTRAST",
              "CodeValue": "651061",
              "CodingSchemeDesignator": "L"
            }
]
        }
],
      "RequestedProcedureCodeSequence": [
        {
          "CodeMeaning": "MRI BRAIN WITHOUT IV CONTRAST",
          "CodeValue": "IMG269",
          "CodingSchemeDesignator": "L"
        }
],
      "Rows": 504,
      "SAR": 0.16778731469836,
      "SamplesPerPixel": 1,
      "ScanOptions": "FS",
      "ScanningSequence": "EP",
      "SequenceName": "*epfid2d1_72",
      "SequenceVariant": "SK",
      "SeriesDescription": "MoCoSeries",
      "SeriesNumber": 10,
      "SeriesTime": "164559.841000",
      "SliceLocation": 10.210849849532,
      "SliceThickness": 3.0,
      "SmallestImagePixelValue": 0,
      "SmokingStatus": "REMOVED",
      "SoftwareVersions": "syngo MR E11",
      "SpacingBetweenSlices": 3.0000000099979,
      "SpecificCharacterSet": "ISO_IR 100",
      "StudyID": "REMOVED",
      "StudyTime": "162629.373000",
      "TransmitCoilName": "Body",
      "VariableFlipAngleFlag": "N",
      "WindowCenterWidthExplanation": "Algo1",
      "dBdt": 0.0},
    "slices": {}
  },
  "time": {
    "samples": {
      "AcquisitionNumber": [1, 2, 3, 4, 5, 6, 7, 8, 9, 10, 11, 12, 13, 14, 15, 16, 17, 18, 19, 20, 21, 22, 23, 24, 25, 26, 27, 28, 29, 30, 31, 32, 33, 34, 35, 36, 37, 38, 39, 40, 41, 42, 43, 44, 45, 46, 47, 48, 49, 50, 51, 52, 53, 54, 55, 56, 57, 58, 59, 60, 61, 62, 63, 64, 65, 66, 67, 68, 69, 70, 71, 72, 73, 74, 75, 76, 77, 78, 79, 80, 81, 82, 83, 84, 85, 86, 87, 88, 89, 90, 91, 92, 93, 94, 95, 96, 97, 98, 99, 100, 101, 102, 103, 104, 105, 106, 107, 108, 109, 110, 111, 112, 113, 114, 115, 116, 117, 118, 119, 120, 121, 122],
      "AcquisitionTime": ["164459.222500", "164501.722500", "164504.222500", "164506.722500", "164509.222500", "164511.722500", "164514.222500", "164516.722500", "164519.222500", "164521.722500", "164524.222500", "164526.722500", "164529.222500", "164531.722500", "164534.222500", "164536.722500", "164539.222500", "164541.722500", "164544.222500", "164546.722500", "164549.222500", "164551.722500", "164554.222500", "164556.722500", "164559.222500", "164601.722500", "164604.222500", "164606.722500", "164609.222500", "164611.722500", "164614.222500", "164616.722500", "164619.222500", "164621.722500", "164624.222500", "164626.722500", "164629.222500", "164631.722500", "164634.222500", "164636.722500", "164639.222500", "164641.722500", "164644.222500", "164646.722500", "164649.222500", "164651.722500", "164654.222500", "164656.722500", "164659.222500", "164701.722500", "164704.222500", "164706.722500", "164709.222500", "164711.722500", "164714.222500", "164716.722500", "164719.222500", "164721.722500", "164724.222500", "164726.722500", "164729.222500", "164731.722500", "164734.222500", "164736.722500", "164739.222500", "164741.722500", "164744.222500", "164746.722500", "164749.222500", "164751.722500", "164754.222500", "164756.722500", "164759.222500", "164801.722500", "164804.222500", "164806.722500", "164809.222500", "164811.722500", "164814.222500", "164816.722500", "164819.222500", "164821.722500", "164824.222500", "164826.722500", "164829.222500", "164831.722500", "164834.222500", "164836.722500", "164839.222500", "164841.722500", "164844.222500", "164846.722500", "164849.222500", "164851.722500", "164854.222500", "164856.722500", "164859.222500", "164901.722500", "164904.222500", "164906.722500", "164909.222500", "164911.722500", "164914.222500", "164916.722500", "164919.222500", "164921.722500", "164924.222500", "164926.722500", "164929.222500", "164931.722500", "164934.222500", "164936.722500", "164939.222500", "164941.722500", "164944.222500", "164946.722500", "164949.222500", "164951.722500", "164954.222500", "164956.722500", "164959.222500", "165001.722500"],
      "ContentTime": ["164559.843000", "164559.846000", "164559.849000", "164559.852000", "164559.854000", "164559.857000", "164559.860000", "164559.863000", "164559.866000", "164559.869000", "164559.871000", "164559.874000", "164559.877000", "164559.880000", "164559.883000", "164559.886000", "164559.888000", "164559.891000", "164559.894000", "164559.897000", "164559.899000", "164559.902000", "164559.905000", "164559.908000", "164659.837000", "164659.845000", "164659.848000", "164659.851000", "164659.853000", "164659.856000", "164659.859000", "164659.862000", "164659.865000", "164659.867000", "164659.870000", "164659.873000", "164659.876000", "164659.878000", "164659.881000", "164659.884000", "164659.887000", "164659.890000", "164659.892000", "164659.895000", "164659.898000", "164659.901000", "164659.904000", "164659.906000", "164759.837000", "164759.840000", "164759.843000", "164759.845000", "164759.848000", "164759.851000", "164759.854000", "164759.856000", "164759.859000", "164759.862000", "164759.865000", "164759.868000", "164759.871000", "164759.873000", "164759.876000", "164759.879000", "164759.882000", "164759.884000", "164759.887000", "164759.890000", "164759.893000", "164759.896000", "164759.898000", "164759.901000", "164859.835000", "164859.838000", "164859.841000", "164859.844000", "164859.847000", "164859.849000", "164859.852000", "164859.855000", "164859.858000", "164859.860000", "164859.863000", "164859.866000", "164859.869000", "164859.872000", "164859.874000", "164859.877000", "164859.880000", "164859.883000", "164859.885000", "164859.888000", "164859.891000", "164859.894000", "164859.897000", "164859.899000", "164959.841000", "164959.844000", "164959.846000", "164959.849000", "164959.852000", "164959.855000", "164959.858000", "164959.860000", "164959.863000", "164959.866000", "164959.869000", "164959.871000", "164959.874000", "164959.877000", "164959.880000", "164959.883000", "164959.894000", "164959.896000", "164959.899000", "164959.902000", "164959.905000", "164959.908000", "164959.910000", "164959.913000", "165003.401000", "165003.406000"],
      "InstanceCreationTime": ["164559.843000", "164559.846000", "164559.849000", "164559.852000", "164559.854000", "164559.857000", "164559.860000", "164559.863000", "164559.866000", "164559.869000", "164559.871000", "164559.874000", "164559.877000", "164559.880000", "164559.883000", "164559.886000", "164559.888000", "164559.891000", "164559.894000", "164559.897000", "164559.899000", "164559.902000", "164559.905000", "164559.908000", "164659.837000", "164659.845000", "164659.848000", "164659.851000", "164659.853000", "164659.856000", "164659.859000", "164659.862000", "164659.865000", "164659.867000", "164659.870000", "164659.873000", "164659.876000", "164659.878000", "164659.881000", "164659.884000", "164659.887000", "164659.890000", "164659.892000", "164659.895000", "164659.898000", "164659.901000", "164659.904000", "164659.906000", "164759.837000", "164759.840000", "164759.843000", "164759.845000", "164759.848000", "164759.851000", "164759.854000", "164759.856000", "164759.859000", "164759.862000", "164759.865000", "164759.868000", "164759.871000", "164759.873000", "164759.876000", "164759.879000", "164759.882000", "164759.884000", "164759.887000", "164759.890000", "164759.893000", "164759.896000", "164759.898000", "164759.901000", "164859.835000", "164859.838000", "164859.841000", "164859.844000", "164859.847000", "164859.849000", "164859.852000", "164859.855000", "164859.858000", "164859.860000", "164859.863000", "164859.866000", "164859.869000", "164859.872000", "164859.874000", "164859.877000", "164859.880000", "164859.883000", "164859.885000", "164859.888000", "164859.891000", "164859.894000", "164859.897000", "164859.899000", "164959.841000", "164959.844000", "164959.846000", "164959.849000", "164959.852000", "164959.855000", "164959.858000", "164959.860000", "164959.863000", "164959.866000", "164959.869000", "164959.871000", "164959.874000", "164959.877000", "164959.880000", "164959.883000", "164959.894000", "164959.896000", "164959.899000", "164959.902000", "164959.905000", "164959.908000", "164959.910000", "164959.913000", "165003.401000", "165003.406000"],
      "InstanceNumber": [1, 2, 3, 4, 5, 6, 7, 8, 9, 10, 11, 12, 13, 14, 15, 16, 17, 18, 19, 20, 21, 22, 23, 24, 25, 26, 27, 28, 29, 30, 31, 32, 33, 34, 35, 36, 37, 38, 39, 40, 41, 42, 43, 44, 45, 46, 47, 48, 49, 50, 51, 52, 53, 54, 55, 56, 57, 58, 59, 60, 61, 62, 63, 64, 65, 66, 67, 68, 69, 70, 71, 72, 73, 74, 75, 76, 77, 78, 79, 80, 81, 82, 83, 84, 85, 86, 87, 88, 89, 90, 91, 92, 93, 94, 95, 96, 97, 98, 99, 100, 101, 102, 103, 104, 105, 106, 107, 108, 109, 110, 111, 112, 113, 114, 115, 116, 117, 118, 119, 120, 121, 122],
      "LargestImagePixelValue": [1473, 1420, 1521, 1385, 1374, 1470, 1429, 1439, 1388, 1380, 1377, 1363, 1400, 1377, 1369, 1477, 1403, 1367, 1371, 1360, 1360, 1366, 1390, 1364, 1414, 1370, 1437, 1456, 1418, 1374, 1366, 1358, 1356, 1372, 1445, 1404, 1375, 1362, 1409, 1413, 1390, 1595, 1401, 1384, 1419, 1381, 1388, 1453, 1377, 1422, 1355, 1407, 1351, 1350, 1371, 1386, 1375, 1377, 1359, 1391, 1432, 1469, 1367, 1348, 1437, 1466, 1396, 1383, 1449, 1386, 1416, 1388, 1452, 1459, 1469, 1468, 1449, 1402, 1390, 1352, 1354, 1386, 1405, 1386, 1435, 1649, 1364, 1382, 1431, 1380, 1408, 1440, 1427, 1385, 1453, 1499, 1402, 1381, 1375, 1390, 1388, 1367, 1373, 1392, 1429, 1456, 1391, 1341, 1385, 1429, 1451, 1442, 1368, 1356, 1353, 1473, 1360, 1430, 1415, 1474, 1420, 1407],
      "WindowCenter": [561.0, 558.0, 557.0, 555.0, 555.0, 556.0, 557.0, 557.0, 558.0, 557.0, 556.0, 555.0, 555.0, 555.0, 556.0, 557.0, 557.0, 557.0, 557.0, 557.0, 557.0, 557.0, 556.0, 556.0, 556.0, 555.0, 556.0, 556.0, 556.0, 556.0, 556.0, 556.0, 556.0, 556.0, 556.0, 555.0, 555.0, 555.0, 555.0, 556.0, 555.0, 557.0, 556.0, 555.0, 554.0, 552.0, 553.0, 554.0, 555.0, 556.0, 557.0, 558.0, 558.0, 558.0, 557.0, 557.0, 557.0, 557.0, 556.0, 557.0, 557.0, 557.0, 557.0, 556.0, 558.0, 558.0, 557.0, 557.0, 557.0, 556.0, 556.0, 555.0, 556.0, 556.0, 556.0, 556.0, 556.0, 556.0, 556.0, 556.0, 556.0, 556.0, 556.0, 555.0, 556.0, 555.0, 552.0, 553.0, 555.0, 556.0, 557.0, 558.0, 558.0, 557.0, 558.0, 557.0, 557.0, 556.0, 557.0, 557.0, 557.0, 557.0, 557.0, 557.0, 557.0, 558.0, 557.0, 556.0, 556.0, 556.0, 556.0, 557.0, 556.0, 557.0, 557.0, 558.0, 557.0, 556.0, 555.0, 554.0, 553.0, 554.0],
      "WindowWidth": [1183.0, 1175.0, 1173.0, 1169.0, 1169.0, 1171.0, 1172.0, 1173.0, 1174.0, 1173.0, 1171.0, 1169.0, 1169.0, 1169.0, 1169.0, 1172.0, 1172.0, 1173.0, 1173.0, 1173.0, 1173.0, 1172.0, 1171.0, 1170.0, 1171.0, 1169.0, 1170.0, 1171.0, 1170.0, 1170.0, 1170.0, 1171.0, 1170.0, 1170.0, 1170.0, 1169.0, 1169.0, 1169.0, 1168.0, 1170.0, 1169.0, 1173.0, 1171.0, 1168.0, 1167.0, 1162.0, 1163.0, 1166.0, 1168.0, 1170.0, 1173.0, 1175.0, 1175.0, 1175.0, 1173.0, 1173.0, 1172.0, 1172.0, 1172.0, 1172.0, 1172.0, 1172.0, 1172.0, 1172.0, 1174.0, 1174.0, 1173.0, 1172.0, 1171.0, 1170.0, 1170.0, 1170.0, 1171.0, 1171.0, 1171.0, 1170.0, 1171.0, 1171.0, 1171.0, 1171.0, 1170.0, 1170.0, 1172.0, 1169.0, 1170.0, 1168.0, 1162.0, 1164.0, 1168.0, 1170.0, 1173.0, 1175.0, 1174.0, 1173.0, 1174.0, 1173.0, 1172.0, 1171.0, 1173.0, 1173.0, 1172.0, 1172.0, 1173.0, 1173.0, 1173.0, 1173.0, 1172.0, 1171.0, 1171.0, 1171.0, 1171.0, 1171.0, 1171.0, 1172.0, 1172.0, 1175.0, 1172.0, 1171.0, 1169.0, 1166.0, 1164.0, 1166.0]
    },
    "slices": {}
  }
}