{
  "AcquisitionMatrixPE": 72,
  "AcquisitionNumber": 1,
  "AcquisitionTime": "16:56:58.865000",
  "BandwidthPerPixelPhaseEncode": 24.366,
  "BaseResolution": 72,
  "BodyPartExamined": "BRAIN",
  "CoilCombinationMethod": "Sum of Squares",
  "ConsistencyInfo": "N4_VE11C_LATEST_20160120",
  "ConversionSoftware": "dcm2niix",
  "ConversionSoftwareVersion": "v1.0.20220720",
  "DerivedVendorReportedEchoSpacing": 0.000570011,
  "DeviceSerialNumber": "45219",
  "DwellTime": 3.5e-06,
  "EchoTime": 0.03,
  "EchoTrainLength": 72,
  "EffectiveEchoSpacing": 0.000570011,
  "FlipAngle": 80,
  "HeudiconvVersion": "1.1.6",
  "ImageComments": "Reference volume for motion correction.",
  "ImageOrientationPatientDICOM": [0.999194, -0.00314869, 0.0400081, -1.35243e-08, 0.996917, 0.0784591],
  "ImageOrientationText": "Tra>Cor(4.5)>Sag(2.3)",
  "ImageType": [
    "ORIGINAL",
    "PRIMARY",
    "M",
    "ND",
    "NORM",
    "MOCO",
    "MOSAIC"
],
  "ImagingFrequency": 123.182,
  "InPlanePhaseEncodingDirectionDICOM": "COL",
  "InstitutionAddress": "First Avenue 660,New York,NYC,US,10016",
  "InstitutionName": "NYU LANGONE CBI",
  "InstitutionalDepartmentName": "Department",
  "MRAcquisitionType": "2D",
  "MagneticFieldStrength": 3,
  "Manufacturer": "Siemens",
  "ManufacturersModelName": "Skyra",
  "MatrixCoilMode": "SENSE",
  "Modality": "MR",
  "NonlinearGradientCorrection": false,
  "PartialFourier": 1,
  "PatientPosition": "HFS",
  "PercentPhaseFOV": 100,
  "PercentSampling": 100,
  "PhaseEncodingDirection": "j-",
  "PhaseEncodingSteps": 72,
  "PhaseResolution": 1,
  "PixelBandwidth": 1985,
  "ProcedureStepDescription": "MRI BRAIN WITHOUT IV CONTRAST",
  "ProtocolName": "TASK_CD_MoCo",
  "PulseSequenceDetails": "%SiemensSeq%\\ep2d_bold",
  "ReceiveCoilActiveElements": "HE1-4",
  "ReceiveCoilName": "HeadNeck_20",
  "ReconMatrixPE": 72,
  "RepetitionTime": 2.5,
  "SAR": 0.167848,
  "ScanOptions": "FS",
  "ScanningSequence": "EP",
  "SequenceName": "*epfid2d1_72",
  "SequenceVariant": "SK",
  "SeriesDescription": "MoCoSeries",
  "SeriesNumber": 14,
  "ShimSetting": [-880, -7077, 5302, 479, -306, 1, -74, -96],
  "SliceThickness": 3,
  "SliceTiming": [1.24, 0, 1.305, 0.065, 1.3725, 0.1325, 1.4375, 0.1975, 1.5025, 0.2625, 1.5675, 0.3275, 1.6325, 0.3925, 1.6975, 0.4575, 1.7625, 0.5225, 1.8275, 0.5875, 1.8925, 0.6525, 1.9575, 0.72, 2.025, 0.785, 2.09, 0.85, 2.155, 0.915, 2.22, 0.98, 2.285, 1.045, 2.35, 1.11, 2.415, 1.175],
  "SoftwareVersions": "syngo MR E11",
  "SpacingBetweenSlices": 3,
  "StationName": "MRC45219",
  "TaskName": "cd",
  "TotalReadoutTime": 0.0404708,
  "TxRefAmp": 453.087,
  "dcmmeta_affine": [
    [-2.9975831508636475, -4.057285352132567e-08, 0.12039537727832794, 104.99795532226562],
    [0.009446071460843086, 2.9907519817352295, 0.23518766462802887, -113.50057983398438],
    [0.12002424150705338, -0.23537728190422058, 2.988342761993408, 14.953177452087402],
    [0.0, 0.0, 0.0, 1.0]
],
  "dcmmeta_reorient_transform": [
    [0.0, -1.0, 0.0, 71.0],
    [1.0, 0.0, 0.0, 0.0],
    [0.0, 0.0, 1.0, 0.0],
    [0.0, 0.0, 0.0, 1.0]
],
  "dcmmeta_shape": [72, 72, 38, 132],
  "dcmmeta_slice_dim": 2,
  "dcmmeta_version": 0.6,
  "global": {
    "const": {
      "AccessionNumber": "REMOVED",
      "AcquisitionMatrix": [72, 0, 0, 72],
      "AngioFlag": "N",
      "BitsAllocated": 16,
      "BitsStored": 12,
      "BodyPartExamined": "BRAIN",
      "Columns": 504,
      "CountryOfResidence": "REMOVED",
      "DeidentificationMethod": "anonymize.default",
      "DeidentificationMethodCodeSequence": [
        {
          "CodeMeaning": "Basic Anonymization",
          "CodeValue": "113199",
          "CodingSchemeDesignator": "2012CDX"
        }
],
      "EchoNumbers": 1,
      "EchoTime": 30.0,
      "EchoTrainLength": 72,
      "FlipAngle": 80.0,
      "HighBit": 11,
      "ImageOrientationPatient": [0.9991943951548, -0.0031486906023, 0.0400080796681, -1.3524284e-08, 0.99691733373157, 0.07845909574769],
      "ImagePositionPatient": [-752.47591416543, -742.80489563549, -78.525339811479],
      "ImageType": [
        "ORIGINAL",
        "PRIMARY",
        "M",
        "ND",
        "NORM",
        "MOCO",
        "MOSAIC"
],
      "ImagedNucleus": "1H",
      "ImagingFrequency": 123.181921,
      "InPlanePhaseEncodingDirection": "COL",
      "MRAcquisitionType": "2D",
      "MagneticFieldStrength": 3.0,
      "Manufacturer": "SIEMENS",
      "ManufacturerModelName": "Skyra",
      "Modality": "MR",
      "NumberOfAverages": 1.0,
      "NumberOfPhaseEncodingSteps": 72,
      "PercentPhaseFieldOfView": 100.0,
      "PercentSampling": 100.0,
      "PerformedProcedureStepStartTime": "162629.527000",
      "PhotometricInterpretation": "MONOCHROME2",
      "PixelBandwidth": 1985.0,
      "PixelRepresentation": 0,
      "PixelSpacing": [3.0, 3.0],
      "PregnancyStatus": 0,
      "ProcedureCodeSequence": [
        {
          "CodeMeaning": "MRI BRAIN WITHOUT IV CONTRAST",
          "CodeValue": "IMG269",
          "CodingSchemeDesignator": "L"
        }
],
      "ProtocolName": "TASK_CD",
      "RepetitionTime": 2500.0,
      "RequestAttributesSequence": [
        {
          "RequestedProcedureID": "365122554",
          "ScheduledProcedureStepDescription": "MRI BRAIN WITHOUT IV CONTRAST",
          "ScheduledProcedureStepID": "E10670491",
          "ScheduledProtocolCodeSequence": [
            {
              "CodeMeaning": "MRI BRAIN WITHOUT IV CONTRAST",
              "CodeValue": "651061",
              "CodingSchemeDesignator": "L"
            }
]
        }
],
      "RequestedProcedureCodeSequence": [
        {
          "CodeMeaning": "MRI BRAIN WITHOUT IV CONTRAST",
          "CodeValue": "IMG269",
          "CodingSchemeDesignator": "L"
        }
],
      "Rows": 504,
      "SAR": 0.16784764285784,
      "SamplesPerPixel": 1,
      "ScanOptions": "FS",
      "ScanningSequence": "EP",
      "SequenceName": "*epfid2d1_72",
      "SequenceVariant": "SK",
      "SeriesDescription": "MoCoSeries",
      "SeriesNumber": 14,
      "SeriesTime": "165720.209000",
      "SliceLocation": 10.210849849532,
      "SliceThickness": 3.0,
      "SmallestImagePixelValue": 0,
      "SmokingStatus": "REMOVED",
      "SoftwareVersions": "syngo MR E11",
      "SpacingBetweenSlices": 3.0000000099979,
      "SpecificCharacterSet": "ISO_IR 100",
      "StudyID": "REMOVED",
      "StudyTime": "162629.373000",
      "TransmitCoilName": "Body",
      "VariableFlipAngleFlag": "N",
      "WindowCenterWidthExplanation": "Algo1",
      "dBdt": 0.0},
    "slices": {}
  },
  "time": {
    "samples": {
      "AcquisitionNumber": [1, 2, 3, 4, 5, 6, 7, 8, 9, 10, 11, 12, 13, 14, 15, 16, 17, 18, 19, 20, 21, 22, 23, 24, 25, 26, 27, 28, 29, 30, 31, 32, 33, 34, 35, 36, 37, 38, 39, 40, 41, 42, 43, 44, 45, 46, 47, 48, 49, 50, 51, 52, 53, 54, 55, 56, 57, 58, 59, 60, 61, 62, 63, 64, 65, 66, 67, 68, 69, 70, 71, 72, 73, 74, 75, 76, 77, 78, 79, 80, 81, 82, 83, 84, 85, 86, 87, 88, 89, 90, 91, 92, 93, 94, 95, 96, 97, 98, 99, 100, 101, 102, 103, 104, 105, 106, 107, 108, 109, 110, 111, 112, 113, 114, 115, 116, 117, 118, 119, 120, 121, 122, 123, 124, 125, 126, 127, 128, 129, 130, 131, 132],
      "AcquisitionTime": ["165658.865000", "165701.365000", "165703.865000", "165706.365000", "165708.865000", "165711.365000", "165713.865000", "165716.365000", "165718.865000", "165721.365000", "165723.865000", "165726.365000", "165728.865000", "165731.365000", "165733.865000", "165736.365000", "165738.865000", "165741.365000", "165743.865000", "165746.365000", "165748.865000", "165751.365000", "165753.865000", "165756.365000", "165758.865000", "165801.365000", "165803.865000", "165806.365000", "165808.865000", "165811.365000", "165813.865000", "165816.365000", "165818.865000", "165821.365000", "165823.865000", "165826.365000", "165828.865000", "165831.365000", "165833.865000", "165836.365000", "165838.865000", "165841.365000", "165843.865000", "165846.365000", "165848.865000", "165851.365000", "165853.865000", "165856.365000", "165858.865000", "165901.365000", "165903.865000", "165906.365000", "165908.865000", "165911.365000", "165913.865000", "165916.365000", "165918.865000", "165921.365000", "165923.865000", "165926.365000", "165928.865000", "165931.365000", "165933.865000", "165936.365000", "165938.865000", "165941.365000", "165943.865000", "165946.365000", "165948.865000", "165951.365000", "165953.865000", "165956.365000", "165958.865000", "170001.365000", "170003.865000", "170006.365000", "170008.865000", "170011.365000", "170013.865000", "170016.365000", "170018.865000", "170021.365000", "170023.865000", "170026.365000", "170028.865000", "170031.365000", "170033.865000", "170036.365000", "170038.865000", "170041.365000", "170043.865000", "170046.365000", "170048.865000", "170051.365000", "170053.865000", "170056.365000", "170058.865000", "170101.365000", "170103.865000", "170106.365000", "170108.865000", "170111.365000", "170113.865000", "170116.365000", "170118.865000", "170121.365000", "170123.865000", "170126.365000", "170128.865000", "170131.365000", "170133.865000", "170136.365000", "170138.865000", "170141.365000", "170143.865000", "170146.365000", "170148.865000", "170151.365000", "170153.865000", "170156.365000", "170158.865000", "170201.365000", "170203.865000", "170206.365000", "170208.865000", "170211.365000", "170213.865000", "170216.365000", "170218.865000", "170221.365000", "170223.865000", "170226.365000"],
      "ContentTime": ["165720.211000", "165720.222000", "165720.224000", "165720.227000", "165720.230000", "165720.233000", "165720.236000", "165720.238000", "165820.294000", "165820.297000", "165820.300000", "165820.303000", "165820.306000", "165820.309000", "165820.312000", "165820.314000", "165820.317000", "165820.320000", "165820.323000", "165820.326000", "165820.328000", "165820.332000", "165820.335000", "165820.338000", "165820.341000", "165820.344000", "165820.347000", "165820.349000", "165820.352000", "165820.355000", "165820.358000", "165820.360000", "165920.266000", "165920.269000", "165920.272000", "165920.274000", "165920.277000", "165920.280000", "165920.283000", "165920.285000", "165920.288000", "165920.291000", "165920.294000", "165920.297000", "165920.299000", "165920.302000", "165920.305000", "165920.308000", "165920.311000", "165920.313000", "165920.316000", "165920.323000", "165920.326000", "165920.329000", "165920.332000", "165920.335000", "170020.270000", "170020.273000", "170020.276000", "170020.278000", "170020.281000", "170020.284000", "170020.287000", "170020.290000", "170020.292000", "170020.295000", "170020.298000", "170020.301000", "170020.304000", "170020.307000", "170020.310000", "170020.312000", "170020.315000", "170020.318000", "170020.321000", "170020.323000", "170020.326000", "170020.329000", "170020.332000", "170020.335000", "170120.263000", "170120.266000", "170120.269000", "170120.271000", "170120.274000", "170120.277000", "170120.280000", "170120.283000", "170120.285000", "170120.288000", "170120.291000", "170120.294000", "170120.297000", "170120.299000", "170120.302000", "170120.305000", "170120.308000", "170120.311000", "170120.314000", "170120.316000", "170120.319000", "170120.322000", "170120.325000", "170120.333000", "170220.270000", "170220.273000", "170220.276000", "170220.279000", "170220.281000", "170220.284000", "170220.287000", "170220.290000", "170220.296000", "170220.299000", "170220.302000", "170220.305000", "170220.307000", "170220.310000", "170220.313000", "170220.316000", "170220.319000", "170220.321000", "170220.324000", "170220.328000", "170220.331000", "170220.334000", "170220.337000", "170220.340000", "170228.388000", "170228.392000", "170228.395000", "170228.399000"],
      "InstanceCreationTime": ["165720.211000", "165720.222000", "165720.224000", "165720.227000", "165720.230000", "165720.233000", "165720.236000", "165720.238000", "165820.294000", "165820.297000", "165820.300000", "165820.303000", "165820.306000", "165820.309000", "165820.312000", "165820.314000", "165820.317000", "165820.320000", "165820.323000", "165820.326000", "165820.328000", "165820.332000", "165820.335000", "165820.338000", "165820.341000", "165820.344000", "165820.347000", "165820.349000", "165820.352000", "165820.355000", "165820.358000", "165820.360000", "165920.266000", "165920.269000", "165920.272000", "165920.274000", "165920.277000", "165920.280000", "165920.283000", "165920.285000", "165920.288000", "165920.291000", "165920.294000", "165920.297000", "165920.299000", "165920.302000", "165920.305000", "165920.308000", "165920.311000", "165920.313000", "165920.316000", "165920.323000", "165920.326000", "165920.329000", "165920.332000", "165920.335000", "170020.270000", "170020.273000", "170020.276000", "170020.278000", "170020.281000", "170020.284000", "170020.287000", "170020.290000", "170020.292000", "170020.295000", "170020.298000", "170020.301000", "170020.304000", "170020.307000", "170020.310000", "170020.312000", "170020.315000", "170020.318000", "170020.321000", "170020.323000", "170020.326000", "170020.329000", "170020.332000", "170020.335000", "170120.263000", "170120.266000", "170120.269000", "170120.271000", "170120.274000", "170120.277000", "170120.280000", "170120.283000", "170120.285000", "170120.288000", "170120.291000", "170120.294000", "170120.297000", "170120.299000", "170120.302000", "170120.305000", "170120.308000", "170120.311000", "170120.314000", "170120.316000", "170120.319000", "170120.322000", "170120.325000", "170120.333000", "170220.270000", "170220.273000", "170220.276000", "170220.279000", "170220.281000", "170220.284000", "170220.287000", "170220.290000", "170220.296000", "170220.299000", "170220.302000", "170220.305000", "170220.307000", "170220.310000", "170220.313000", "170220.316000", "170220.319000", "170220.321000", "170220.324000", "170220.328000", "170220.331000", "170220.334000", "170220.337000", "170220.340000", "170228.388000", "170228.392000", "170228.395000", "170228.399000"],
      "InstanceNumber": [1, 2, 3, 4, 5, 6, 7, 8, 9, 10, 11, 12, 13, 14, 15, 16, 17, 18, 19, 20, 21, 22, 23, 24, 25, 26, 27, 28, 29, 30, 31, 32, 33, 34, 35, 36, 37, 38, 39, 40, 41, 42, 43, 44, 45, 46, 47, 48, 49, 50, 51, 52, 53, 54, 55, 56, 57, 58, 59, 60, 61, 62, 63, 64, 65, 66, 67, 68, 69, 70, 71, 72, 73, 74, 75, 76, 77, 78, 79, 80, 81, 82, 83, 84, 85, 86, 87, 88, 89, 90, 91, 92, 93, 94, 95, 96, 97, 98, 99, 100, 101, 102, 103, 104, 105, 106, 107, 108, 109, 110, 111, 112, 113, 114, 115, 116, 117, 118, 119, 120, 121, 122, 123, 124, 125, 126, 127, 128, 129, 130, 131, 132],
      "LargestImagePixelValue": [1428, 1429, 1428, 1356, 1345, 1370, 1379, 1391, 1392, 1361, 1418, 1398, 1342, 1365, 1388, 1395, 1331, 1345, 1327, 1335, 1398, 1442, 1415, 1297, 1484, 1394, 1399, 1389, 1347, 1399, 1432, 1361, 1368, 1374, 1323, 1323, 1323, 1371, 1338, 1338, 1382, 1346, 1334, 1369, 1354, 1332, 1372, 1366, 1343, 1399, 1412, 1324, 1335, 1387, 1390, 1348, 1323, 1420, 1353, 1331, 1361, 1345, 1330, 1334, 1513, 1467, 1436, 1403, 1389, 1355, 1389, 1405, 1359, 1460, 1373, 1360, 1368, 1360, 1368, 1318, 1474, 1486, 1433, 1419, 1436, 1432, 1416, 1458, 1377, 1428, 1403, 1368, 1284, 1388, 1393, 1389, 1379, 1418, 1416, 1406, 1364, 1367, 1351, 1351, 1350, 1376, 1403, 1352, 1381, 1359, 1428, 1435, 1389, 1399, 1458, 1420, 1417, 1370, 1370, 1362, 1350, 1369, 1343, 1545, 1330, 1344, 1339, 1337, 1379, 1337, 1402, 1391],
      "WindowCenter": [561.0, 558.0, 558.0, 558.0, 558.0, 557.0, 557.0, 557.0, 557.0, 558.0, 557.0, 556.0, 556.0, 556.0, 556.0, 556.0, 555.0, 554.0, 553.0, 554.0, 555.0, 555.0, 555.0, 535.0, 559.0, 555.0, 554.0, 553.0, 553.0, 554.0, 554.0, 554.0, 554.0, 555.0, 554.0, 553.0, 553.0, 553.0, 553.0, 553.0, 554.0, 554.0, 554.0, 554.0, 554.0, 554.0, 554.0, 553.0, 555.0, 554.0, 554.0, 551.0, 551.0, 552.0, 553.0, 554.0, 554.0, 556.0, 555.0, 555.0, 553.0, 548.0, 552.0, 555.0, 539.0, 551.0, 552.0, 549.0, 552.0, 552.0, 552.0, 553.0, 553.0, 555.0, 554.0, 554.0, 554.0, 555.0, 555.0, 555.0, 537.0, 558.0, 556.0, 556.0, 556.0, 556.0, 555.0, 555.0, 554.0, 554.0, 554.0, 552.0, 551.0, 548.0, 553.0, 554.0, 555.0, 556.0, 556.0, 555.0, 555.0, 555.0, 555.0, 554.0, 554.0, 553.0, 554.0, 554.0, 554.0, 554.0, 555.0, 555.0, 554.0, 554.0, 553.0, 553.0, 552.0, 554.0, 553.0, 553.0, 553.0, 553.0, 546.0, 549.0, 553.0, 553.0, 552.0, 552.0, 553.0, 554.0, 554.0, 556.0],
      "WindowWidth": [1183.0, 1175.0, 1174.0, 1175.0, 1175.0, 1174.0, 1172.0, 1172.0, 1173.0, 1175.0, 1172.0, 1171.0, 1170.0, 1170.0, 1169.0, 1169.0, 1167.0, 1166.0, 1165.0, 1165.0, 1167.0, 1169.0, 1169.0, 1126.0, 1176.0, 1168.0, 1167.0, 1165.0, 1165.0, 1166.0, 1167.0, 1166.0, 1167.0, 1167.0, 1166.0, 1165.0, 1164.0, 1164.0, 1164.0, 1165.0, 1166.0, 1166.0, 1166.0, 1166.0, 1166.0, 1166.0, 1167.0, 1163.0, 1168.0, 1165.0, 1165.0, 1161.0, 1161.0, 1163.0, 1164.0, 1166.0, 1167.0, 1169.0, 1169.0, 1168.0, 1163.0, 1153.0, 1162.0, 1168.0, 1134.0, 1160.0, 1161.0, 1156.0, 1161.0, 1162.0, 1163.0, 1164.0, 1164.0, 1167.0, 1167.0, 1167.0, 1167.0, 1168.0, 1168.0, 1169.0, 1128.0, 1175.0, 1171.0, 1169.0, 1171.0, 1170.0, 1168.0, 1168.0, 1167.0, 1166.0, 1165.0, 1162.0, 1161.0, 1153.0, 1165.0, 1165.0, 1167.0, 1171.0, 1171.0, 1169.0, 1169.0, 1168.0, 1168.0, 1166.0, 1166.0, 1164.0, 1166.0, 1167.0, 1167.0, 1166.0, 1168.0, 1167.0, 1165.0, 1167.0, 1163.0, 1164.0, 1161.0, 1166.0, 1165.0, 1165.0, 1165.0, 1163.0, 1150.0, 1156.0, 1165.0, 1163.0, 1161.0, 1162.0, 1164.0, 1166.0, 1167.0, 1169.0]
    },
    "slices": {}
  }
}