{
  "AcquisitionMatrixPE": 72,
  "AcquisitionNumber": 1,
  "AcquisitionTime": "16:39:16.525000",
  "BandwidthPerPixelPhaseEncode": 24.366,
  "BaseResolution": 72,
  "BodyPartExamined": "BRAIN",
  "CoilCombinationMethod": "Sum of Squares",
  "ConsistencyInfo": "N4_VE11C_LATEST_20160120",
  "ConversionSoftware": "dcm2niix",
  "ConversionSoftwareVersion": "v1.0.20220720",
  "DerivedVendorReportedEchoSpacing": 0.000570011,
  "DeviceSerialNumber": "45219",
  "DwellTime": 3.5e-06,
  "EchoTime": 0.03,
  "EchoTrainLength": 72,
  "EffectiveEchoSpacing": 0.000570011,
  "FlipAngle": 80,
  "HeudiconvVersion": "1.1.6",
  "ImageOrientationPatientDICOM": [0.999194, -0.00314869, 0.0400081, -1.35243e-08, 0.996917, 0.0784591],
  "ImageOrientationText": "Tra>Cor(4.5)>Sag(2.3)",
  "ImageType": [
    "ORIGINAL",
    "PRIMARY",
    "M",
    "ND",
    "NORM",
    "MOSAIC"
],
  "ImagingFrequency": 123.182,
  "InPlanePhaseEncodingDirectionDICOM": "COL",
  "InstitutionAddress": "First Avenue 660,New York,NYC,US,10016",
  "InstitutionName": "NYU LANGONE CBI",
  "InstitutionalDepartmentName": "Department",
  "MRAcquisitionType": "2D",
  "MagneticFieldStrength": 3,
  "Manufacturer": "Siemens",
  "ManufacturersModelName": "Skyra",
  "MatrixCoilMode": "SENSE",
  "Modality": "MR",
  "NonlinearGradientCorrection": false,
  "PartialFourier": 1,
  "PatientPosition": "HFS",
  "PercentPhaseFOV": 100,
  "PercentSampling": 100,
  "PhaseEncodingDirection": "j-",
  "PhaseEncodingSteps": 72,
  "PhaseResolution": 1,
  "PixelBandwidth": 1985,
  "ProcedureStepDescription": "MRI BRAIN WITHOUT IV CONTRAST",
  "ProtocolName": "REST_1",
  "PulseSequenceDetails": "%SiemensSeq%\\ep2d_bold",
  "ReceiveCoilActiveElements": "HE1-4",
  "ReceiveCoilName": "HeadNeck_20",
  "ReconMatrixPE": 72,
  "RepetitionTime": 2.5,
  "SAR": 0.167787,
  "ScanOptions": "FS",
  "ScanningSequence": "EP",
  "SequenceName": "*epfid2d1_72",
  "SequenceVariant": "SK",
  "SeriesDescription": "REST_1",
  "SeriesNumber": 7,
  "ShimSetting": [-880, -7077, 5302, 479, -306, 1, -74, -96],
  "SliceThickness": 3,
  "SliceTiming": [1.2375, 0, 1.305, 0.065, 1.37, 0.13, 1.435, 0.195, 1.5, 0.26, 1.565, 0.325, 1.63, 0.39, 1.695, 0.455, 1.76, 0.52, 1.825, 0.585, 1.8925, 0.6525, 1.9575, 0.7175, 2.0225, 0.7825, 2.0875, 0.8475, 2.1525, 0.9125, 2.2175, 0.9775, 2.2825, 1.0425, 2.3475, 1.1075, 2.4125, 1.1725],
  "SoftwareVersions": "syngo MR E11",
  "SpacingBetweenSlices": 3,
  "StationName": "MRC45219",
  "TaskName": "rest",
  "TotalReadoutTime": 0.0404708,
  "TxRefAmp": 453.087,
  "dcmmeta_affine": [
    [-2.9975831508636475, -4.057285352132567e-08, 0.12039537727832794, 104.99795532226562],
    [0.009446071460843086, 2.9907519817352295, 0.23518766462802887, -113.50057983398438],
    [0.12002424150705338, -0.23537728190422058, 2.988342761993408, 14.953177452087402],
    [0.0, 0.0, 0.0, 1.0]
],
  "dcmmeta_reorient_transform": [
    [0.0, -1.0, 0.0, 71.0],
    [1.0, 0.0, 0.0, 0.0],
    [0.0, 0.0, 1.0, 0.0],
    [0.0, 0.0, 0.0, 1.0]
],
  "dcmmeta_shape": [72, 72, 38, 122],
  "dcmmeta_slice_dim": 2,
  "dcmmeta_version": 0.6,
  "global": {
    "const": {
      "AccessionNumber": "REMOVED",
      "AcquisitionMatrix": [72, 0, 0, 72],
      "AngioFlag": "N",
      "BitsAllocated": 16,
      "BitsStored": 12,
      "BodyPartExamined": "BRAIN",
      "Columns": 504,
      "CountryOfResidence": "REMOVED",
      "DeidentificationMethod": "anonymize.default",
      "DeidentificationMethodCodeSequence": [
        {
          "CodeMeaning": "Basic Anonymization",
          "CodeValue": "113199",
          "CodingSchemeDesignator": "2012CDX"
        }
],
      "EchoNumbers": 1,
      "EchoTime": 30.0,
      "EchoTrainLength": 72,
      "FlipAngle": 80.0,
      "HighBit": 11,
      "ImageOrientationPatient": [0.9991943951548, -0.0031486906023, 0.0400080796681, -1.3524284e-08, 0.99691733373157, 0.07845909574769],
      "ImagePositionPatient": [-752.47591416543, -742.80489563549, -78.525339811479],
      "ImageType": [
        "ORIGINAL",
        "PRIMARY",
        "M",
        "ND",
        "NORM",
        "MOSAIC"
],
      "ImagedNucleus": "1H",
      "ImagingFrequency": 123.181854,
      "InPlanePhaseEncodingDirection": "COL",
      "MRAcquisitionType": "2D",
      "MagneticFieldStrength": 3.0,
      "Manufacturer": "SIEMENS",
      "ManufacturerModelName": "Skyra",
      "Modality": "MR",
      "NumberOfAverages": 1.0,
      "NumberOfPhaseEncodingSteps": 72,
      "PercentPhaseFieldOfView": 100.0,
      "PercentSampling": 100.0,
      "PerformedProcedureStepStartTime": "162629.527000",
      "PhotometricInterpretation": "MONOCHROME2",
      "PixelBandwidth": 1985.0,
      "PixelRepresentation": 0,
      "PixelSpacing": [3.0, 3.0],
      "PregnancyStatus": 0,
      "ProcedureCodeSequence": [
        {
          "CodeMeaning": "MRI BRAIN WITHOUT IV CONTRAST",
          "CodeValue": "IMG269",
          "CodingSchemeDesignator": "L"
        }
],
      "ProtocolName": "REST_1",
      "RepetitionTime": 2500.0,
      "RequestAttributesSequence": [
        {
          "RequestedProcedureID": "365122554",
          "ScheduledProcedureStepDescription": "MRI BRAIN WITHOUT IV CONTRAST",
          "ScheduledProcedureStepID": "E10670491",
          "ScheduledProtocolCodeSequence": [
            {
              "CodeMeaning": "MRI BRAIN WITHOUT IV CONTRAST",
              "CodeValue": "651061",
              "CodingSchemeDesignator": "L"
            }
]
        }
],
      "RequestedProcedureCodeSequence": [
        {
          "CodeMeaning": "MRI BRAIN WITHOUT IV CONTRAST",
          "CodeValue": "IMG269",
          "CodingSchemeDesignator": "L"
        }
],
      "Rows": 504,
      "SAR": 0.16778731469836,
      "SamplesPerPixel": 1,
      "ScanOptions": "FS",
      "ScanningSequence": "EP",
      "SequenceName": "*epfid2d1_72",
      "SequenceVariant": "SK",
      "SeriesDescription": "REST_1",
      "SeriesNumber": 7,
      "SeriesTime": "164020.163000",
      "SliceLocation": 10.210849849532,
      "SliceThickness": 3.0,
      "SmallestImagePixelValue": 0,
      "SmokingStatus": "REMOVED",
      "SoftwareVersions": "syngo MR E11",
      "SpacingBetweenSlices": 3.0000000099979,
      "SpecificCharacterSet": "ISO_IR 100",
      "StudyID": "REMOVED",
      "StudyTime": "162629.373000",
      "TransmitCoilName": "Body",
      "VariableFlipAngleFlag": "N",
      "WindowCenterWidthExplanation": "Algo1",
      "dBdt": 0.0},
    "slices": {}
  },
  "time": {
    "samples": {
      "AcquisitionNumber": [1, 2, 3, 4, 5, 6, 7, 8, 9, 10, 11, 12, 13, 14, 15, 16, 17, 18, 19, 20, 21, 22, 23, 24, 25, 26, 27, 28, 29, 30, 31, 32, 33, 34, 35, 36, 37, 38, 39, 40, 41, 42, 43, 44, 45, 46, 47, 48, 49, 50, 51, 52, 53, 54, 55, 56, 57, 58, 59, 60, 61, 62, 63, 64, 65, 66, 67, 68, 69, 70, 71, 72, 73, 74, 75, 76, 77, 78, 79, 80, 81, 82, 83, 84, 85, 86, 87, 88, 89, 90, 91, 92, 93, 94, 95, 96, 97, 98, 99, 100, 101, 102, 103, 104, 105, 106, 107, 108, 109, 110, 111, 112, 113, 114, 115, 116, 117, 118, 119, 120, 121, 122],
      "AcquisitionTime": ["163916.525000", "163919.025000", "163921.525000", "163924.025000", "163926.525000", "163929.025000", "163931.525000", "163934.025000", "163936.525000", "163939.025000", "163941.525000", "163944.025000", "163946.525000", "163949.025000", "163951.525000", "163954.025000", "163956.525000", "163959.025000", "164001.525000", "164004.025000", "164006.525000", "164009.025000", "164011.525000", "164014.025000", "164016.525000", "164019.025000", "164021.525000", "164024.025000", "164026.525000", "164029.025000", "164031.525000", "164034.025000", "164036.525000", "164039.025000", "164041.525000", "164044.025000", "164046.525000", "164049.025000", "164051.525000", "164054.025000", "164056.525000", "164059.025000", "164101.525000", "164104.025000", "164106.525000", "164109.025000", "164111.525000", "164114.025000", "164116.525000", "164119.025000", "164121.525000", "164124.025000", "164126.525000", "164129.025000", "164131.525000", "164134.025000", "164136.525000", "164139.025000", "164141.525000", "164144.025000", "164146.525000", "164149.025000", "164151.525000", "164154.025000", "164156.525000", "164159.025000", "164201.525000", "164204.025000", "164206.525000", "164209.025000", "164211.525000", "164214.025000", "164216.525000", "164219.025000", "164221.525000", "164224.025000", "164226.525000", "164229.025000", "164231.525000", "164234.025000", "164236.525000", "164239.025000", "164241.525000", "164244.025000", "164246.525000", "164249.025000", "164251.525000", "164254.025000", "164256.525000", "164259.025000", "164301.525000", "164304.025000", "164306.525000", "164309.025000", "164311.525000", "164314.025000", "164316.525000", "164319.025000", "164321.525000", "164324.025000", "164326.525000", "164329.025000", "164331.525000", "164334.025000", "164336.525000", "164339.025000", "164341.525000", "164344.025000", "164346.525000", "164349.025000", "164351.525000", "164354.025000", "164356.525000", "164359.025000", "164401.525000", "164404.025000", "164406.525000", "164409.025000", "164411.525000", "164414.025000", "164416.525000", "164419.025000"],
      "ContentTime": ["164020.167000", "164020.171000", "164020.174000", "164020.176000", "164020.179000", "164020.182000", "164020.184000", "164020.193000", "164020.195000", "164020.198000", "164020.201000", "164020.203000", "164020.206000", "164020.209000", "164020.211000", "164020.214000", "164020.217000", "164020.219000", "164020.222000", "164020.225000", "164020.228000", "164020.230000", "164020.233000", "164020.236000", "164020.238000", "164120.163000", "164120.166000", "164120.169000", "164120.171000", "164120.174000", "164120.177000", "164120.180000", "164120.182000", "164120.185000", "164120.188000", "164120.190000", "164120.193000", "164120.196000", "164120.198000", "164120.201000", "164120.204000", "164120.206000", "164120.209000", "164120.212000", "164120.215000", "164120.217000", "164120.220000", "164120.223000", "164120.225000", "164220.163000", "164220.166000", "164220.169000", "164220.171000", "164220.174000", "164220.177000", "164220.179000", "164220.182000", "164220.185000", "164220.187000", "164220.190000", "164220.193000", "164220.196000", "164220.198000", "164220.201000", "164220.203000", "164220.206000", "164220.209000", "164220.212000", "164220.214000", "164220.217000", "164220.220000", "164220.222000", "164220.225000", "164320.163000", "164320.166000", "164320.168000", "164320.171000", "164320.174000", "164320.177000", "164320.179000", "164320.182000", "164320.185000", "164320.188000", "164320.190000", "164320.193000", "164320.196000", "164320.198000", "164320.201000", "164320.204000", "164320.207000", "164320.209000", "164320.212000", "164320.215000", "164320.217000", "164320.220000", "164320.223000", "164320.226000", "164420.163000", "164420.166000", "164420.169000", "164420.171000", "164420.174000", "164420.177000", "164420.179000", "164420.182000", "164420.185000", "164420.187000", "164420.190000", "164420.193000", "164420.196000", "164420.198000", "164420.201000", "164420.204000", "164420.206000", "164420.209000", "164420.212000", "164420.215000", "164420.217000", "164420.220000", "164420.223000", "164420.226000", "164420.644000"],
      "InstanceCreationTime": ["164020.167000", "164020.171000", "164020.174000", "164020.176000", "164020.179000", "164020.182000", "164020.184000", "164020.193000", "164020.195000", "164020.198000", "164020.201000", "164020.203000", "164020.206000", "164020.209000", "164020.211000", "164020.214000", "164020.217000", "164020.219000", "164020.222000", "164020.225000", "164020.228000", "164020.230000", "164020.233000", "164020.236000", "164020.238000", "164120.163000", "164120.166000", "164120.169000", "164120.171000", "164120.174000", "164120.177000", "164120.180000", "164120.182000", "164120.185000", "164120.188000", "164120.190000", "164120.193000", "164120.196000", "164120.198000", "164120.201000", "164120.204000", "164120.206000", "164120.209000", "164120.212000", "164120.215000", "164120.217000", "164120.220000", "164120.223000", "164120.225000", "164220.163000", "164220.166000", "164220.169000", "164220.171000", "164220.174000", "164220.177000", "164220.179000", "164220.182000", "164220.185000", "164220.187000", "164220.190000", "164220.193000", "164220.196000", "164220.198000", "164220.201000", "164220.203000", "164220.206000", "164220.209000", "164220.212000", "164220.214000", "164220.217000", "164220.220000", "164220.222000", "164220.225000", "164320.163000", "164320.166000", "164320.168000", "164320.171000", "164320.174000", "164320.177000", "164320.179000", "164320.182000", "164320.185000", "164320.188000", "164320.190000", "164320.193000", "164320.196000", "164320.198000", "164320.201000", "164320.204000", "164320.207000", "164320.209000", "164320.212000", "164320.215000", "164320.217000", "164320.220000", "164320.223000", "164320.226000", "164420.163000", "164420.166000", "164420.169000", "164420.171000", "164420.174000", "164420.177000", "164420.179000", "164420.182000", "164420.185000", "164420.187000", "164420.190000", "164420.193000", "164420.196000", "164420.198000", "164420.201000", "164420.204000", "164420.206000", "164420.209000", "164420.212000", "164420.215000", "164420.217000", "164420.220000", "164420.223000", "164420.226000", "164420.644000"],
      "InstanceNumber": [1, 2, 3, 4, 5, 6, 7, 8, 9, 10, 11, 12, 13, 14, 15, 16, 17, 18, 19, 20, 21, 22, 23, 24, 25, 26, 27, 28, 29, 30, 31, 32, 33, 34, 35, 36, 37, 38, 39, 40, 41, 42, 43, 44, 45, 46, 47, 48, 49, 50, 51, 52, 53, 54, 55, 56, 57, 58, 59, 60, 61, 62, 63, 64, 65, 66, 67, 68, 69, 70, 71, 72, 73, 74, 75, 76, 77, 78, 79, 80, 81, 82, 83, 84, 85, 86, 87, 88, 89, 90, 91, 92, 93, 94, 95, 96, 97, 98, 99, 100, 101, 102, 103, 104, 105, 106, 107, 108, 109, 110, 111, 112, 113, 114, 115, 116, 117, 118, 119, 120, 121, 122],
      "LargestImagePixelValue": [1570, 1420, 1415, 1404, 1488, 1386, 1388, 1408, 1408, 1413, 1419, 1412, 1408, 1423, 1414, 1419, 1414, 1410, 1406, 1405, 1402, 1408, 1418, 1419, 1415, 1412, 1412, 1411, 1419, 1418, 1416, 1407, 1405, 1406, 1399, 1394, 1399, 1392, 1410, 1418, 1452, 1456, 1426, 1432, 1419, 1410, 1411, 1410, 1417, 1442, 1408, 1402, 1399, 1403, 1411, 1422, 1414, 1413, 1412, 1470, 1417, 1413, 1405, 1399, 1400, 1440, 1408, 1488, 1421, 1415, 1425, 1563, 1686, 1393, 1396, 1389, 1417, 1410, 1410, 1404, 1420, 1406, 1433, 1467, 1423, 1499, 1413, 1428, 1431, 1421, 1422, 1420, 1417, 1415, 1410, 1418, 1391, 1403, 1514, 1393, 1409, 1434, 1431, 1408, 1398, 1406, 1428, 1424, 1412, 1417, 1413, 1417, 1433, 1420, 1424, 1430, 1424, 1424, 1715, 1422, 1411, 1467],
      "WindowCenter": [562.0, 558.0, 557.0, 556.0, 555.0, 555.0, 556.0, 557.0, 558.0, 559.0, 559.0, 559.0, 559.0, 558.0, 557.0, 558.0, 558.0, 558.0, 558.0, 558.0, 557.0, 558.0, 558.0, 558.0, 558.0, 558.0, 558.0, 558.0, 558.0, 558.0, 558.0, 558.0, 558.0, 557.0, 557.0, 557.0, 557.0, 557.0, 557.0, 557.0, 557.0, 557.0, 557.0, 557.0, 557.0, 557.0, 557.0, 557.0, 557.0, 557.0, 557.0, 557.0, 557.0, 557.0, 557.0, 557.0, 557.0, 557.0, 557.0, 558.0, 557.0, 557.0, 557.0, 556.0, 557.0, 557.0, 557.0, 558.0, 559.0, 558.0, 557.0, 555.0, 554.0, 553.0, 553.0, 554.0, 555.0, 557.0, 557.0, 558.0, 557.0, 558.0, 558.0, 558.0, 557.0, 558.0, 558.0, 559.0, 559.0, 559.0, 558.0, 558.0, 558.0, 558.0, 558.0, 558.0, 558.0, 558.0, 559.0, 557.0, 556.0, 554.0, 553.0, 553.0, 555.0, 557.0, 558.0, 559.0, 558.0, 558.0, 557.0, 558.0, 558.0, 558.0, 559.0, 559.0, 558.0, 558.0, 559.0, 558.0, 557.0, 557.0],
      "WindowWidth": [1185.0, 1176.0, 1172.0, 1170.0, 1169.0, 1169.0, 1170.0, 1173.0, 1175.0, 1176.0, 1176.0, 1176.0, 1176.0, 1175.0, 1174.0, 1174.0, 1175.0, 1175.0, 1174.0, 1174.0, 1173.0, 1174.0, 1175.0, 1175.0, 1175.0, 1175.0, 1175.0, 1175.0, 1175.0, 1175.0, 1174.0, 1174.0, 1174.0, 1173.0, 1173.0, 1173.0, 1173.0, 1173.0, 1173.0, 1173.0, 1173.0, 1172.0, 1172.0, 1173.0, 1173.0, 1173.0, 1172.0, 1173.0, 1173.0, 1173.0, 1172.0, 1173.0, 1172.0, 1173.0, 1173.0, 1173.0, 1173.0, 1173.0, 1173.0, 1175.0, 1173.0, 1173.0, 1172.0, 1171.0, 1172.0, 1172.0, 1173.0, 1175.0, 1176.0, 1175.0, 1172.0, 1167.0, 1166.0, 1164.0, 1165.0, 1166.0, 1169.0, 1173.0, 1173.0, 1174.0, 1172.0, 1174.0, 1174.0, 1173.0, 1172.0, 1174.0, 1175.0, 1176.0, 1176.0, 1176.0, 1175.0, 1174.0, 1174.0, 1174.0, 1174.0, 1175.0, 1174.0, 1176.0, 1177.0, 1172.0, 1170.0, 1167.0, 1165.0, 1165.0, 1169.0, 1172.0, 1175.0, 1176.0, 1174.0, 1175.0, 1172.0, 1173.0, 1175.0, 1175.0, 1176.0, 1176.0, 1175.0, 1175.0, 1177.0, 1174.0, 1172.0, 1172.0]
    },
    "slices": {}
  }
}